#Shining_header
#data type:raman_database
#CAS:Not entered
#Material scientific name:Anorthite
#Manufacturer:Not entered
#Laser model:Not entered
#Spectrometer model:Not entered
#Testing unit:Not entered
#Test time:Not entered
#Other experimental details:Not entered
#Shining_data
114.2189 0.0000000E+00
114.7010 9.6252002E-02
115.1832 0.4733890
115.6653 1.169891
116.1474 2.154602
116.6295 1.431580
117.1116 0.1009830
117.5937 0.4497990
118.0759 0.3229680
118.5580 1.454071
119.0401 2.016296
119.5222 1.827423
120.0043 1.723816
120.4864 2.908905
120.9686 5.190948
121.4507 7.242249
121.9328 8.378723
122.4149 8.983398
122.8970 9.992096
123.3791 11.59738
123.8613 13.65854
124.3434 16.02399
124.8255 18.76062
125.3076 21.68146
125.7897 24.69403
126.2718 27.72433
126.7540 30.62067
127.2361 32.78418
127.7182 35.19440
128.2003 38.61813
128.6824 43.16205
129.1645 47.99890
129.6467 51.86426
130.1288 54.07727
130.6109 56.56134
131.0930 59.67914
131.5751 62.97073
132.0572 66.17755
132.5394 69.18527
133.0215 71.87933
133.5036 73.90289
133.9857 74.87164
134.4678 75.62415
134.9499 76.55176
135.4321 77.46640
135.9142 79.19553
136.3963 82.72247
136.8784 87.85745
137.3605 92.49435
137.8426 96.28421
138.3248 99.39911
138.8069 101.9905
139.2890 104.5275
139.7711 107.0171
140.2532 109.1964
140.7353 111.3453
141.2175 114.3453
141.6996 119.1241
142.1817 124.3126
142.6638 128.8229
143.1459 132.7459
143.6280 135.3734
144.1102 136.3317
144.5923 135.7007
145.0744 133.1154
145.5565 127.7977
146.0386 120.4174
146.5207 112.9338
147.0029 105.5779
147.4850 97.67157
147.9671 88.43610
148.4492 78.44815
148.9313 68.95538
149.4134 61.10464
149.8955 54.95816
150.3777 48.21289
150.8598 39.38074
151.3419 31.18527
151.8240 24.61188
152.3061 19.56494
152.7882 15.39569
153.2704 11.42410
153.7525 7.588867
154.2346 4.218262
154.7167 0.8784180
155.1988 1.836823
155.6809 3.354645
156.1631 3.701965
156.6452 3.535248
157.1273 3.740204
157.6094 4.510986
158.0915 5.312469
158.5736 6.472565
159.0558 7.507019
159.5379 7.912354
160.0200 7.535217
160.5021 6.654877
160.9842 5.712830
161.4663 4.744751
161.9485 3.629150
162.4306 2.383453
162.9127 0.9667360
163.3948 0.7018430
163.8769 2.625336
164.3590 4.874268
164.8412 7.568451
165.3233 10.78226
165.8054 14.03485
166.2875 17.05539
166.7696 19.87918
167.2517 22.63315
167.7339 25.21155
168.2160 27.87341
168.6981 30.80359
169.1802 34.01382
169.6623 37.49054
170.1444 41.40494
170.6266 45.89795
171.1087 49.89127
171.5908 52.15079
172.0729 54.31662
172.5550 57.60593
173.0371 62.41687
173.5193 67.84735
174.0014 72.49673
174.4835 76.09119
174.9656 79.39679
175.4477 82.25537
175.9298 85.12286
176.4120 88.37088
176.8941 92.17239
177.3762 96.28937
177.8583 100.0023
178.3404 102.6903
178.8225 105.8116
179.3047 109.5261
179.7868 113.7284
180.2689 118.4810
180.7510 123.8181
181.2331 129.5126
181.7152 134.4045
182.1974 137.9338
182.6795 141.3293
183.1616 144.6834
183.6437 148.0517
184.1258 151.6150
184.6079 155.5489
185.0900 159.6861
185.5722 162.8123
186.0543 164.3631
186.5364 165.7563
187.0185 167.2077
187.5006 168.8450
187.9827 171.1701
188.4649 174.7606
188.9470 179.1974
189.4291 182.5369
189.9112 184.5171
190.3933 185.7408
190.8754 186.4215
191.3576 186.5822
191.8397 186.4968
192.3218 186.4251
192.8039 186.1503
193.2860 185.2467
193.7681 183.3742
194.2503 181.1111
194.7324 179.0925
195.2145 177.3714
195.6966 175.5073
196.1787 173.2840
196.6608 170.7441
197.1430 167.8505
197.6251 164.5252
198.1072 160.9045
198.5893 157.2268
199.0714 153.5146
199.5535 149.6212
200.0357 144.7841
200.5178 139.9460
200.9999 136.3289
201.4820 134.7015
201.9641 134.3334
202.4462 133.1364
202.9284 130.4244
203.4105 127.9980
203.8926 126.9423
204.3747 126.2703
204.8568 124.6146
205.3389 121.0846
205.8211 116.2279
206.3032 112.6326
206.7853 111.6708
207.2674 110.3565
207.7495 107.9446
208.2316 104.8650
208.7138 101.7634
209.1959 99.04846
209.6780 96.61493
210.1601 93.77798
210.6422 90.26343
211.1243 86.59833
211.6065 82.68982
212.0886 78.69870
212.5707 74.87814
213.0528 71.34317
213.5349 68.08472
214.0170 64.65067
214.4992 61.12888
214.9813 57.41327
215.4634 53.07047
215.9455 48.48950
216.4276 44.32605
216.9097 40.99792
217.3919 38.54037
217.8740 37.09885
218.3561 37.15692
218.8382 37.53406
219.3203 38.24463
219.8024 39.00485
220.2845 39.02570
220.7667 37.70694
221.2488 35.23096
221.7309 32.96387
222.2130 30.89578
222.6951 29.01920
223.1772 27.45023
223.6594 26.11575
224.1415 24.66165
224.6236 22.81409
225.1057 20.71750
225.5878 18.85272
226.0699 16.99658
226.5521 15.59146
227.0342 15.22974
227.5163 15.79849
227.9984 16.07581
228.4805 15.08450
228.9626 13.59015
229.4448 13.05841
229.9269 13.82477
230.4090 15.19070
230.8911 16.60825
231.3732 18.07135
231.8553 19.82574
232.3375 22.21368
232.8196 24.83929
233.3017 27.20834
233.7838 29.22076
234.2659 31.05215
234.7480 32.79361
235.2302 34.42041
235.7123 36.19687
236.1944 37.99771
236.6765 40.14066
237.1586 43.07123
237.6407 46.97693
238.1229 51.11044
238.6050 54.44601
239.0871 56.74545
239.5692 59.45093
240.0513 63.64304
240.5334 67.99631
241.0156 71.55447
241.4977 74.08160
241.9798 76.27496
242.4619 79.16446
242.9440 83.11685
243.4261 86.36652
243.9083 87.70349
244.3904 88.85803
244.8725 91.18176
245.3546 94.85806
245.8367 98.66904
246.3188 100.8071
246.8010 100.6134
247.2831 100.7704
247.7652 101.8535
248.2473 103.0562
248.7294 103.8461
249.2115 104.1687
249.6937 104.3868
250.1758 104.9868
250.6579 106.1304
251.1400 107.2391
251.6221 108.2442
252.1042 109.2725
252.5864 110.4792
253.0685 111.8372
253.5506 113.1219
254.0327 114.1277
254.5148 114.9864
254.9969 115.0600
255.4790 113.9371
255.9612 112.5193
256.4433 111.3656
256.9254 110.4569
257.4075 109.3267
257.8896 107.4049
258.3718 104.3828
258.8539 101.9767
259.3360 100.8344
259.8181 99.61713
260.3002 97.32904
260.7823 94.19016
261.2645 91.33041
261.7466 89.90082
262.2287 90.19464
262.7108 89.73123
263.1929 87.88940
263.6750 86.04849
264.1572 84.57785
264.6393 83.61694
265.1214 83.43015
265.6035 84.37817
266.0856 86.52197
266.5677 87.55038
267.0499 86.41504
267.5320 85.45880
268.0141 85.90033
268.4962 87.40536
268.9783 88.83282
269.4604 89.37790
269.9426 89.12958
270.4247 89.24457
270.9068 90.07733
271.3889 90.82501
271.8710 91.27249
272.3531 91.40146
272.8352 91.16541
273.3174 90.49899
273.7995 89.53287
274.2816 88.81815
274.7637 88.15701
275.2458 87.86667
275.7279 88.24432
276.2101 89.05429
276.6922 89.85614
277.1743 90.48212
277.6564 90.90518
278.1385 90.97546
278.6206 90.48764
279.1028 90.14114
279.5849 90.40759
280.0670 90.93390
280.5491 90.99393
281.0312 90.23822
281.5133 89.15881
281.9955 88.87991
282.4776 89.80536
282.9597 89.97903
283.4418 88.31812
283.9239 85.74170
284.4060 83.92053
284.8882 83.44870
285.3703 83.05356
285.8524 80.59021
286.3345 75.83591
286.8166 71.62738
287.2987 68.95551
287.7809 66.98517
288.2630 64.70483
288.7451 61.96841
289.2272 58.99231
289.7093 56.07722
290.1914 53.18208
290.6736 49.98619
291.1557 46.13258
291.6378 42.06564
292.1199 38.10941
292.6020 34.30734
293.0841 31.04158
293.5663 28.88838
294.0484 27.59889
294.5305 25.92067
295.0126 23.28952
295.4947 20.56595
295.9768 18.47290
296.4590 17.01181
296.9411 15.85918
297.4232 14.88762
297.9053 14.10857
298.3874 13.43803
298.8695 12.81888
299.3517 12.37994
299.8338 12.47641
300.3159 12.98331
300.7980 12.99306
301.2801 11.87021
301.7622 10.14761
302.2444 8.913910
302.7265 8.187668
303.2086 7.897552
303.6907 8.335358
304.1728 9.259415
304.6549 9.737915
305.1371 9.325836
305.6192 8.546417
306.1013 8.221863
306.5834 8.407028
307.0655 8.499390
307.5476 8.311310
308.0298 7.837280
308.5119 6.948334
308.9940 5.450821
309.4761 3.951385
309.9582 3.227173
310.4403 3.157791
310.9225 3.129105
311.4046 2.955414
311.8867 2.695267
312.3688 2.405762
312.8509 2.069458
313.3330 1.818451
313.8152 1.766312
314.2973 1.895981
314.7794 2.202484
315.2615 2.543243
315.7436 3.143570
316.2257 4.460449
316.7079 6.535477
317.1900 8.406403
317.6721 9.407593
318.1542 9.781006
318.6363 10.18901
319.1184 10.73016
319.6006 11.25101
320.0827 11.51064
320.5648 11.57195
321.0469 11.99657
321.5290 13.38423
322.0111 14.94647
322.4933 15.21193
322.9754 13.79724
323.4575 12.30136
323.9396 11.81724
324.4217 11.95531
324.9038 11.44676
325.3860 9.740982
325.8681 7.632538
326.3502 6.265823
326.8323 5.617676
327.3144 4.874176
327.7965 3.487305
328.2787 1.885452
328.7608 0.8866580
329.2429 0.6994170
329.7250 0.7041780
330.2071 0.2489620
330.6892 0.5728000
331.1714 1.221313
331.6535 1.556198
332.1356 1.696991
332.6177 1.704163
333.0998 1.582199
333.5819 1.496124
334.0641 1.623444
334.5462 1.865967
335.0283 1.865509
335.5104 1.335373
335.9925 0.8296510
336.4746 0.7456360
336.9568 1.015686
337.4389 1.337891
337.9210 1.612656
338.4031 1.828918
338.8852 1.971359
339.3673 2.046631
339.8495 2.052124
340.3316 1.978897
340.8137 1.833557
341.2958 1.544861
341.7779 1.021072
342.2600 0.6060790
342.7421 0.9936520
343.2242 2.310959
343.7064 3.183807
344.1885 3.056503
344.6706 2.508545
345.1527 2.112885
345.6348 1.955811
346.1169 2.014450
346.5991 2.334213
347.0812 2.929047
347.5633 3.340378
348.0454 3.597458
348.5275 3.653366
349.0096 3.319153
349.4918 2.694977
349.9739 2.256729
350.4560 2.364944
350.9381 2.854858
351.4202 2.897675
351.9023 2.149246
352.3845 1.435196
352.8666 1.076752
353.3487 0.9130860
353.8308 0.6525730
354.3129 0.1777500
354.7950 0.4214480
355.2772 0.9810180
355.7593 1.500992
356.2414 1.979034
356.7235 2.353149
357.2056 2.718887
357.6877 3.110764
358.1699 3.554947
358.6520 4.176987
359.1341 5.142715
359.6162 6.532211
360.0983 7.885498
360.5804 9.364624
361.0626 10.67249
361.5447 11.58640
362.0268 12.17894
362.5089 12.67677
362.9910 13.20413
363.4731 13.79131
363.9553 14.71614
364.4374 16.31424
364.9195 17.84160
365.4016 19.18227
365.8837 20.35019
366.3658 21.42493
366.8480 22.44118
367.3301 23.26581
367.8122 23.59145
368.2943 23.00902
368.7764 22.52763
369.2585 22.25365
369.7407 22.00003
370.2228 21.64124
370.7049 21.15244
371.1870 20.55800
371.6691 19.84703
372.1512 18.95923
372.6334 18.35185
373.1155 18.19734
373.5976 18.13799
374.0797 18.23274
374.5618 18.31754
375.0439 18.03607
375.5261 17.08568
376.0082 15.68044
376.4903 14.92676
376.9724 15.35570
377.4545 15.71654
377.9366 15.52640
378.4188 15.30127
378.9009 15.66588
379.3830 16.81404
379.8651 18.27565
380.3472 19.28175
380.8293 19.71564
381.3115 20.09782
381.7936 20.42892
382.2757 20.75435
382.7578 21.11351
383.2399 21.49823
383.7220 21.84903
384.2042 21.97163
384.6863 21.92024
385.1684 22.57959
385.6505 24.76845
386.1326 26.49435
386.6147 26.61908
387.0969 25.89008
387.5790 25.52010
388.0611 26.12669
388.5432 27.23409
389.0253 27.97749
389.5074 28.28619
389.9896 28.71489
390.4717 29.29375
390.9538 30.16214
391.4359 31.47652
391.9180 33.24393
392.4001 35.18396
392.8823 37.21861
393.3644 39.31784
393.8465 41.21834
394.3286 42.80273
394.8107 44.10896
395.2928 45.24078
395.7750 46.17273
396.2571 46.76364
396.7392 46.56892
397.2213 46.25418
397.7034 47.07663
398.1855 49.17532
398.6677 50.76498
399.1498 50.48715
399.6319 49.10780
400.1140 48.45372
400.5961 48.89381
401.0782 49.35606
401.5604 49.23938
402.0425 48.76680
402.5246 48.48360
403.0067 48.60062
403.4888 48.78085
403.9709 48.45480
404.4531 47.54570
404.9352 46.74261
405.4173 46.54657
405.8994 46.31360
406.3815 45.50998
406.8636 44.08711
407.3458 41.98436
407.8279 38.94679
408.3100 35.03609
408.7921 31.89842
409.2742 29.77258
409.7563 28.14532
410.2385 27.12660
410.7206 26.40393
411.2027 25.49390
411.6848 24.20540
412.1669 22.64706
412.6490 20.98692
413.1311 18.76791
413.6133 17.27525
414.0954 17.01692
414.5775 17.07117
415.0596 16.69283
415.5417 15.87990
416.0238 15.16533
416.5060 15.02588
416.9881 15.46936
417.4702 16.35605
417.9523 18.01086
418.4344 19.76646
418.9165 21.41971
419.3987 23.08501
419.8808 24.94719
420.3629 27.07422
420.8450 29.44881
421.3271 32.03333
421.8092 34.89830
422.2914 37.77142
422.7735 40.59808
423.2556 43.45389
423.7377 46.48535
424.2198 49.63950
424.7019 52.64896
425.1841 55.34299
425.6662 57.71758
426.1483 59.68279
426.6304 61.34473
427.1125 62.35533
427.5946 62.30563
428.0768 61.66165
428.5589 61.22461
429.0410 61.54971
429.5231 61.57629
430.0052 59.52043
430.4873 55.32361
430.9695 51.78200
431.4516 50.05771
431.9337 49.02785
432.4158 47.47430
432.8979 45.39088
433.3800 43.10368
433.8622 40.48468
434.3443 37.84531
434.8264 35.74049
435.3085 34.25336
435.7906 33.11606
436.2727 32.32877
436.7549 31.74178
437.2370 30.70534
437.7191 28.99014
438.2012 27.03297
438.6833 24.96957
439.1654 22.83569
439.6476 20.67580
440.1297 18.48439
440.6118 16.37764
441.0939 14.60161
441.5760 13.37941
442.0581 11.85846
442.5403 9.760941
443.0224 7.523682
443.5045 5.384537
443.9866 3.411560
444.4687 1.707458
444.9508 0.3711400
445.4330 0.6224210
445.9151 1.605484
446.3972 2.486862
446.8793 3.461975
447.3614 4.861938
447.8435 6.238144
448.3257 7.011383
448.8078 7.028381
449.2899 6.706619
449.7720 6.696732
450.2541 7.197937
450.7362 7.313843
451.2184 7.034897
451.7005 6.362534
452.1826 5.142410
452.6647 3.514282
453.1468 1.789505
453.6289 0.2077940
454.1111 1.412781
454.5932 3.721176
455.0753 7.160355
455.5574 10.00539
456.0395 10.92784
456.5216 11.44167
457.0038 12.76482
457.4859 15.08688
457.9680 17.63400
458.4501 19.91904
458.9322 21.96927
459.4143 23.83090
459.8965 25.48065
460.3786 27.01303
460.8607 28.48991
461.3428 29.90384
461.8249 31.21776
462.3070 32.30748
462.7892 33.41309
463.2713 34.43835
463.7534 35.56833
464.2355 37.53482
464.7176 40.69664
465.1997 44.61652
465.6819 48.58101
466.1640 52.42871
466.6461 56.83441
467.1282 62.49478
467.6103 68.29697
468.0924 73.16060
468.5746 77.16670
469.0567 81.28615
469.5388 86.21468
470.0209 91.82040
470.5030 97.37634
470.9851 102.8328
471.4673 108.2554
471.9494 113.8542
472.4315 119.3094
472.9136 124.1589
473.3957 128.3451
473.8778 132.3861
474.3600 136.7775
474.8421 141.4282
475.3242 147.1082
475.8063 154.8781
476.2884 162.6430
476.7705 169.2716
477.2527 175.5377
477.7348 182.8032
478.2169 191.7625
478.6990 201.7170
479.1811 211.3388
479.6632 220.5276
480.1454 230.5593
480.6275 242.0847
481.1096 254.3132
481.5917 266.6451
482.0738 279.0420
482.5559 291.4946
483.0380 304.4689
483.5201 317.3758
484.0023 329.4846
484.4844 340.7929
484.9665 350.5573
485.4486 358.4985
485.9307 364.4037
486.4128 368.2234
486.8950 370.0789
487.3771 369.8108
487.8592 366.4399
488.3413 361.2927
488.8234 355.6742
489.3055 349.9228
489.7877 344.8112
490.2698 341.0327
490.7519 338.5648
491.2340 337.7733
491.7161 339.2685
492.1982 341.4064
492.6804 343.1480
493.1625 345.3895
493.6446 349.3766
494.1267 355.5853
494.6088 363.6874
495.0909 373.2689
495.5731 384.6634
496.0552 396.4819
496.5373 408.2363
497.0194 420.9215
497.5015 435.1845
497.9836 450.6739
498.4658 466.6873
498.9479 483.0227
499.4300 499.3227
499.9121 515.2576
500.3942 530.8911
500.8763 545.2800
501.3585 559.7108
501.8406 571.1495
502.3227 577.0994
502.8048 577.5581
503.2869 574.8588
503.7690 570.2382
504.2512 563.1046
504.7333 552.3944
505.2154 537.9474
505.6975 521.0038
506.1796 501.9714
506.6617 481.1222
507.1439 459.2069
507.6260 435.0665
508.1081 411.7500
508.5902 389.8882
509.0723 369.4379
509.5544 350.3208
510.0366 332.6153
510.5187 315.9702
511.0008 300.0650
511.4829 284.8838
511.9650 270.7891
512.4471 258.5554
512.9293 246.4641
513.4114 234.2359
513.8935 221.9803
514.3756 209.9227
514.8577 198.0821
515.3398 185.9406
515.8220 172.4044
516.3041 157.1887
516.7862 143.9484
517.2683 133.7175
517.7504 124.3404
518.2325 114.8367
518.7147 105.4863
519.1968 96.83438
519.6789 89.08438
520.1610 82.02893
520.6431 75.48694
521.1252 69.47363
521.6074 64.08141
522.0895 59.31979
522.5716 55.30240
523.0537 52.55191
523.5358 50.81033
524.0179 48.47571
524.5001 44.70831
524.9822 40.87209
525.4643 37.99545
525.9464 35.79282
526.4285 33.40387
526.9106 30.42490
527.3928 27.34648
527.8749 25.10611
528.3570 24.20004
528.8391 22.97252
529.3212 20.97786
529.8033 19.09634
530.2855 17.80884
530.7676 17.04091
531.2497 16.49739
531.7318 15.99886
532.2139 15.62643
532.6960 15.61543
533.1782 16.05501
533.6603 16.60201
534.1424 16.78964
534.6245 17.41451
535.1066 19.40892
535.5887 22.43848
536.0709 24.95599
536.5530 25.47319
537.0351 25.18967
537.5172 26.44675
537.9993 29.30293
538.4814 32.35727
538.9636 34.95595
539.4457 37.52856
539.9278 40.96445
540.4099 45.46642
540.8920 49.47363
541.3741 51.94244
541.8563 54.14253
542.3384 57.48270
542.8205 61.89398
543.3026 66.31047
543.7847 70.03094
544.2668 73.27173
544.7490 76.73531
545.2311 80.37527
545.7132 84.33652
546.1953 88.81015
546.6774 93.45105
547.1595 97.89276
547.6417 102.2247
548.1238 106.9266
548.6059 112.5569
549.0880 118.7593
549.5701 124.0095
550.0522 127.7714
550.5344 131.7007
551.0165 136.4096
551.4986 141.4457
551.9807 146.6765
552.4628 152.0977
552.9449 157.1111
553.4271 161.7108
553.9092 165.4258
554.3913 167.3814
554.8734 167.5504
555.3555 166.9858
555.8376 166.2418
556.3198 165.1055
556.8019 162.9867
557.2840 159.9297
557.7661 156.1268
558.2482 151.3245
558.7303 145.9867
559.2125 140.4099
559.6946 134.6563
560.1767 128.7306
560.6588 122.5872
561.1409 116.2660
561.6230 109.9097
562.1052 103.4201
562.5873 96.94867
563.0694 90.36435
563.5515 83.90939
564.0336 77.79448
564.5157 71.99652
564.9979 66.42336
565.4800 61.00645
565.9621 55.75980
566.4442 50.74567
566.9263 45.99557
567.4084 41.28305
567.8906 36.25732
568.3727 31.50790
568.8548 27.90297
569.3369 25.50911
569.8190 23.06262
570.3011 19.92912
570.7833 16.70865
571.2654 14.13551
571.7475 12.12170
572.2296 10.01794
572.7117 7.382599
573.1938 4.616577
573.6760 2.675507
574.1581 2.163361
574.6402 1.449524
575.1223 0.2762300
575.6044 0.8677220
576.0865 1.759354
576.5687 2.410217
577.0508 2.884262
577.5329 3.184830
578.0150 3.360748
578.4971 3.545624
578.9792 3.758499
579.4614 4.031540
579.9435 4.715820
580.4256 5.147690
580.9077 4.532852
581.3898 3.149841
581.8719 2.198700
582.3541 2.589233
582.8362 3.212234
583.3183 2.899460
583.8004 1.838760
584.2825 0.7872010
584.7646 1.5822999E-02
585.2468 0.7228090
585.7289 1.510635
586.2110 2.386551
586.6931 3.346161
587.1752 4.360031
587.6573 5.546432
588.1394 7.209335
588.6215 8.982651
589.1036 10.19948
589.5858 10.65384
590.0679 10.94516
590.5500 12.10918
591.0321 14.36766
591.5142 15.61426
591.9963 14.98364
592.4785 14.62807
592.9606 15.94052
593.4427 17.89165
593.9248 19.01256
594.4069 18.89589
594.8890 18.32353
595.3712 17.61856
595.8533 16.91417
596.3354 16.61942
596.8175 16.80437
597.2996 16.88939
597.7817 16.38405
598.2639 15.44224
598.7460 14.90654
599.2281 15.29605
599.7102 15.32262
600.1923 14.75865
600.6744 13.78757
601.1566 12.36836
601.6387 10.65892
602.1208 9.139420
602.6029 8.192352
603.0850 7.695969
603.5671 7.243408
604.0493 7.010437
604.5314 6.343552
605.0135 4.607407
605.4956 2.758011
605.9777 1.305832
606.4598 0.3060460
606.9420 0.2283020
607.4241 1.5610000E-02
607.9062 0.5269470
608.3883 0.7963410
608.8704 0.8143160
609.3525 0.4231110
609.8347 0.5423580
610.3168 1.540375
610.7989 1.783920
611.2810 1.076614
611.7631 0.5430910
612.2452 0.3720860
612.7274 0.1608730
613.2095 0.3517000
613.6916 0.9855190
614.1737 1.415665
614.6558 1.547058
615.1379 1.640137
615.6201 2.060699
616.1022 2.819809
616.5843 3.440109
617.0664 3.694199
617.5485 4.217117
618.0306 5.678787
618.5128 7.401123
618.9949 8.529495
619.4770 8.860886
619.9591 9.022308
620.4412 9.309509
620.9233 9.672821
621.4055 10.11861
621.8876 10.61684
622.3697 10.89963
622.8518 10.78584
623.3339 10.37498
623.8160 9.954498
624.2982 9.491119
624.7803 9.076355
625.2624 9.007217
625.7445 8.718338
626.2266 7.611389
626.7087 6.012695
627.1909 4.757217
627.6730 4.321365
628.1551 4.274307
628.6372 3.849121
629.1193 3.027237
629.6014 2.479141
630.0836 2.454987
630.5657 2.469940
631.0478 2.072433
631.5299 1.420425
632.0120 0.8876190
632.4941 0.4712370
632.9763 0.2675930
633.4584 0.5556950
633.9405 0.9575810
634.4226 0.8513340
634.9047 0.1805270
635.3868 0.5790100
635.8690 1.059967
636.3511 1.257446
636.8332 1.081512
637.3153 7.3211998E-02
637.7974 0.5523830
638.2795 0.4418030
638.7617 1.540695
639.2438 1.689758
639.7259 1.017990
640.2080 0.4062040
640.6901 0.3121030
641.1722 0.5124050
641.6544 0.8214720
642.1365 1.209579
642.6186 1.271378
643.1007 0.8056790
643.5828 0.3033290
644.0649 0.3246770
644.5471 0.9071500
645.0292 1.367416
645.5113 1.767929
645.9934 1.975586
646.4755 1.991592
646.9576 1.764450
647.4398 1.046249
647.9219 0.1037140
648.4040 1.063629
648.8861 1.088806
649.3682 0.4179380
649.8503 0.7415470
650.3325 2.636368
650.8146 3.926041
651.2967 3.481659
651.7788 2.501129
652.2609 1.968842
652.7430 1.911163
653.2252 2.045990
653.7073 2.313736
654.1894 2.690918
654.6715 3.313690
655.1536 4.032913
655.6357 4.295349
656.1179 3.897873
656.6000 3.501328
657.0821 3.976364
657.5642 5.418900
658.0463 6.805908
658.5284 8.307388
659.0106 9.544418
659.4927 10.10559
659.9748 10.56276
660.4569 11.64281
660.9390 13.38921
661.4211 15.00903
661.9033 15.67714
662.3854 15.85336
662.8675 16.51996
663.3496 17.68130
663.8317 19.09959
664.3138 20.77477
664.7960 22.41502
665.2781 23.54852
665.7602 24.00032
666.2423 25.03696
666.7244 27.16588
667.2065 29.31613
667.6887 30.97020
668.1708 32.31738
668.6529 33.69753
669.1350 35.25696
669.6171 36.95238
670.0992 38.78571
670.5814 40.72899
671.0635 42.35825
671.5456 43.47852
672.0277 44.93231
672.5098 47.24875
672.9919 49.88680
673.4741 52.14191
673.9562 53.99174
674.4383 56.01886
674.9204 58.74728
675.4025 61.40584
675.8846 63.42131
676.3668 64.89851
676.8489 66.07962
677.3310 67.05254
677.8131 67.92819
678.2952 68.86681
678.7773 69.88139
679.2595 70.63268
679.7416 71.37492
680.2237 71.41129
680.7058 70.08134
681.1879 68.32231
681.6700 67.01543
682.1522 66.22824
682.6343 65.43634
683.1164 64.67236
683.5985 63.55255
684.0806 61.44342
684.5627 58.52397
685.0449 55.53575
685.5270 52.71350
686.0091 50.03593
686.4912 47.42802
686.9733 44.83267
687.4554 42.86519
687.9376 42.51503
688.4197 41.59462
688.9018 39.22653
689.3839 36.36856
689.8660 33.97058
690.3481 32.12248
690.8303 30.31886
691.3124 28.14436
691.7945 25.87375
692.2766 23.83710
692.7587 22.04309
693.2408 20.94238
693.7230 20.89867
694.2051 20.98581
694.6872 20.09991
695.1693 18.24004
695.6514 16.70076
696.1335 15.52992
696.6157 14.39090
697.0978 13.23091
697.5799 12.18694
698.0620 11.35252
698.5441 10.70227
699.0262 10.16368
699.5084 9.737228
699.9905 9.321335
700.4726 8.596069
700.9547 7.577240
701.4368 7.062302
701.9189 7.315704
702.4011 7.840912
702.8832 8.342407
703.3653 8.786011
703.8474 8.841415
704.3295 8.437302
704.8116 7.772217
705.2938 6.481339
705.7759 5.301758
706.2580 5.075424
706.7401 5.684509
707.2222 6.253052
707.7043 6.211334
708.1865 5.840195
708.6686 5.720886
709.1507 5.862686
709.6328 5.946747
710.1149 5.939285
710.5970 5.848251
711.0792 5.555466
711.5613 5.186142
712.0434 5.138077
712.5255 5.724350
713.0076 6.117020
713.4897 5.833755
713.9719 5.378128
714.4540 5.175629
714.9361 5.278000
715.4182 5.671570
715.9003 6.367432
716.3824 7.111694
716.8646 7.308899
717.3467 6.874573
717.8288 6.867416
718.3109 7.572983
718.7930 8.309799
719.2751 8.681015
719.7573 8.839478
720.2394 8.978134
720.7215 9.027725
721.2036 9.374313
721.6857 10.41080
722.1678 11.58401
722.6500 12.46153
723.1321 13.05940
723.6142 13.54655
724.0963 13.98935
724.5784 14.22664
725.0605 13.77209
725.5427 12.57564
726.0248 12.84245
726.5069 15.33833
726.9890 17.57784
727.4711 18.30775
727.9532 18.45546
728.4354 19.01172
728.9175 20.01024
729.3995 21.23442
729.8817 22.96675
730.3638 24.56200
730.8459 25.46350
731.3280 25.93982
731.8101 26.38820
732.2922 26.96461
732.7744 27.86749
733.2565 29.34204
733.7386 31.30223
734.2207 33.19469
734.7028 35.04996
735.1849 36.73802
735.6671 38.10843
736.1492 39.43745
736.6313 40.92439
737.1134 42.55904
737.5955 44.30609
738.0776 46.56491
738.5598 48.40947
739.0419 48.97424
739.5240 49.07983
740.0061 49.82034
740.4882 51.22224
740.9703 52.62666
741.4525 53.61423
741.9346 54.23299
742.4167 54.51196
742.8988 54.37016
743.3809 54.50473
743.8630 55.20125
744.3452 55.80722
744.8273 55.81367
745.3094 55.48413
745.7915 55.34511
746.2736 55.51195
746.7557 55.50546
747.2379 54.70480
747.7200 54.07437
748.2021 54.65521
748.6842 56.05226
749.1663 57.12679
749.6484 57.43700
750.1306 57.75453
750.6127 59.26294
751.0948 61.84514
751.5769 63.80589
752.0590 65.01137
752.5411 66.00432
753.0233 66.54686
753.5054 67.37819
753.9875 69.89659
754.4696 74.06700
754.9517 77.26340
755.4338 78.35680
755.9160 79.35425
756.3981 81.13780
756.8802 83.33841
757.3623 85.58514
757.8444 87.73177
758.3265 89.67578
758.8087 91.31447
759.2908 92.76163
759.7729 94.27621
760.2550 95.84274
760.7371 96.90620
761.2192 97.36812
761.7014 97.29279
762.1835 96.63065
762.6656 95.47105
763.1477 94.19379
763.6298 92.72662
764.1119 91.27649
764.5941 90.00682
765.0762 88.63571
765.5583 87.13177
766.0404 85.34505
766.5225 82.95891
767.0046 79.85226
767.4868 76.52660
767.9689 73.48233
768.4510 70.66629
768.9331 67.93652
769.4152 65.28711
769.8973 62.61165
770.3795 59.80716
770.8616 57.09697
771.3437 54.81816
771.8258 53.09377
772.3079 50.97321
772.7900 47.85254
773.2722 45.13383
773.7543 43.59116
774.2364 42.21489
774.7185 39.87784
775.2006 36.76442
775.6827 34.10118
776.1649 32.61955
776.6470 31.61624
777.1291 30.40656
777.6112 29.03455
778.0933 27.57083
778.5754 26.05742
779.0576 24.63519
779.5397 23.39777
780.0218 22.25871
780.5039 20.94846
780.9860 19.23978
781.4681 17.92497
781.9503 17.26985
782.4324 16.74100
782.9145 16.17657
783.3966 15.58430
783.8787 15.01311
784.3608 14.49632
784.8430 13.76154
785.3251 12.23260
785.8072 10.80353
786.2893 10.56277
786.7714 11.03819
787.2535 11.06790
787.7357 10.33768
788.2178 9.351440
788.6999 8.560333
789.1820 8.024200
789.6641 8.009552
790.1462 8.717102
790.6284 9.027084
791.1105 8.500549
791.5926 7.781372
792.0747 7.400299
792.5568 7.286667
793.0389 7.163956
793.5211 7.082413
794.0032 6.903671
794.4853 6.622757
794.9674 6.201324
795.4495 5.433899
795.9316 4.535324
796.4138 3.985138
796.8959 3.988403
797.3780 4.128983
797.8601 3.975647
798.3422 3.567123
798.8243 2.961868
799.3065 2.167023
799.7886 1.482971
800.2707 1.016006
800.7528 0.7827610
801.2349 0.9146120
801.7170 1.513382
802.1992 1.457626
802.6813 0.1250000
803.1634 1.232986
803.6455 1.385788
804.1276 1.174362
804.6097 0.9532620
805.0919 0.7639620
805.5740 0.5730590
806.0561 0.4886630
806.5382 0.4719700
807.0203 0.4126130
807.5024 0.2492980
807.9846 9.8999001E-02
808.4667 0.5644680
808.9488 0.6802670
809.4309 0.1986540
809.9130 0.5272520
810.3951 0.9375000
810.8773 1.020126
811.3594 0.9441830
811.8415 0.6724700
812.3236 0.2563480
812.8057 0.4753110
813.2878 1.139709
813.7700 1.209259
814.2521 0.7155760
814.7342 0.3794100
815.2163 0.5787660
815.6984 0.6505580
816.1805 7.7510001E-03
816.6627 0.6479950
817.1448 0.4057310
817.6269 0.5541840
818.1090 1.286072
818.5911 1.261063
819.0732 0.9414830
819.5554 0.8921660
820.0375 1.076035
820.5196 1.392990
821.0017 1.833923
821.4838 2.240555
821.9659 2.546768
822.4481 2.741608
822.9302 2.821167
823.4123 2.804504
823.8944 2.531662
824.3765 1.707123
824.8586 1.030930
825.3408 0.6717830
825.8229 0.4904330
826.3050 0.4244540
826.7871 0.4366300
827.2692 0.4075930
827.7513 0.2609710
828.2335 0.1218870
828.7156 8.5845999E-02
829.1977 9.1216996E-02
829.6798 4.4799998E-02
830.1619 4.2435002E-02
830.6440 4.9148999E-02
831.1262 9.2147999E-02
831.6083 0.1733250
832.0904 0.3418730
832.5725 1.354141
833.0546 1.344620
833.5367 9.7198002E-02
834.0189 0.9797970
834.5010 1.398041
834.9831 1.332214
835.4652 0.8979800
835.9473 7.9117000E-02
836.4294 0.5388490
836.9116 0.9877170
837.3937 1.213333
837.8758 1.096451
838.3579 0.8506770
838.8400 0.5693660
839.3221 0.2994230
839.8043 0.1098790
840.2864 2.8441999E-02
840.7685 1.4679000E-02
841.2506 7.0450000E-02
841.7327 0.1561280
842.2148 0.2495420
842.6970 0.3229520
843.1791 0.2513730
843.6612 6.1340001E-03
844.1433 0.2222750
844.6254 5.1895000E-02
845.1075 0.4017330
845.5897 0.2471010
846.0718 0.7189480
846.5539 1.292252
847.0360 1.038269
847.5181 0.6190030
848.0002 0.5449830
848.4824 0.7618560
848.9645 1.018112
849.4466 1.519394
849.9287 1.679443
850.4108 1.089966
850.8929 0.4991300
851.3751 0.4048310
851.8572 0.5657960
852.3393 0.5329130
852.8214 0.2143860
853.3035 3.5216998E-02
853.7856 9.6344002E-02
854.2678 0.3830110
854.7499 0.5737760
855.2320 0.6808320
855.7141 0.7778020
856.1962 0.8642430
856.6783 0.7304230
857.1605 0.1615750
857.6426 0.5663150
858.1247 0.6031340
858.6068 0.1942140
859.0889 0.4945530
859.5710 1.5121000E-02
860.0532 0.4699100
860.5353 0.5595860
861.0174 0.4732670
861.4995 0.4624480
861.9816 0.4791110
862.4637 0.7925570
862.9459 2.238876
863.4280 2.949341
863.9101 1.549362
864.3922 0.2461700
864.8743 0.7326810
865.3564 8.0886997E-02
865.8386 0.4396060
866.3207 0.2710720
866.8028 0.1402890
867.2849 0.6514130
867.7670 1.017899
868.2491 0.7363430
868.7313 5.4993000E-02
869.2134 0.7568050
869.6955 1.117203
870.1776 1.195953
870.6597 1.058228
871.1418 0.7231600
871.6239 0.2550200
872.1060 0.3660430
872.5881 1.006805
873.0703 1.751938
873.5524 2.229126
874.0345 1.966110
874.5166 1.163971
874.9987 0.8661190
875.4808 1.457397
875.9630 1.899033
876.4451 2.197174
876.9272 2.323288
877.4093 2.170319
877.8914 1.888947
878.3735 1.597519
878.8557 1.336624
879.3378 1.319183
879.8199 1.894135
880.3020 2.491791
880.7841 2.599365
881.2662 2.472290
881.7484 2.463684
882.2305 2.624054
882.7126 2.914627
883.1947 3.325821
883.6768 3.718079
884.1589 3.791183
884.6411 3.635834
885.1232 3.791855
885.6053 4.286591
886.0874 4.847794
886.5695 5.418976
887.0516 5.858459
887.5338 5.952026
888.0159 5.730637
888.4980 5.741486
888.9801 5.977753
889.4622 6.486374
889.9443 7.431473
890.4265 8.372574
890.9086 9.383423
891.3907 10.30644
891.8728 10.53401
892.3549 9.758255
892.8370 9.396317
893.3192 9.912979
893.8013 10.83444
894.2834 12.29393
894.7655 13.76282
895.2476 14.51711
895.7297 14.58487
896.2119 14.60732
896.6940 14.92636
897.1761 15.42418
897.6582 16.05061
898.1403 16.71527
898.6224 17.27560
899.1046 17.69022
899.5867 17.69191
900.0688 17.15167
900.5509 16.79472
901.0330 17.73482
901.5151 19.77376
901.9973 21.04904
902.4794 21.42880
902.9615 21.57657
903.4436 21.50862
903.9257 21.73488
904.4078 22.75403
904.8900 24.23225
905.3721 25.06781
905.8542 24.80765
906.3363 24.92514
906.8184 25.71213
907.3005 26.50459
907.7827 27.03290
908.2648 27.46695
908.7469 28.02374
909.2290 28.70395
909.7111 29.26115
910.1932 29.50011
910.6754 29.72963
911.1575 30.34062
911.6396 30.88474
912.1217 30.68332
912.6038 29.99182
913.0859 29.65733
913.5681 29.98718
914.0502 30.28357
914.5323 29.68222
915.0144 28.63440
915.4965 28.20801
915.9786 28.22066
916.4608 27.73865
916.9429 26.51495
917.4250 24.77975
917.9071 22.63698
918.3892 20.45668
918.8713 19.14343
919.3535 18.77574
919.8356 18.42000
920.3177 18.07039
920.7998 17.49646
921.2819 16.63506
921.7640 15.77234
922.2462 15.08104
922.7283 14.46295
923.2104 13.94684
923.6925 13.28041
924.1746 13.09828
924.6567 13.97876
925.1389 14.79994
925.6210 14.77312
926.1031 14.33549
926.5852 14.22246
927.0673 14.53691
927.5494 14.95998
928.0316 15.47958
928.5137 16.00444
928.9958 16.56551
929.4779 17.05946
929.9600 17.26956
930.4421 17.24538
930.9243 17.23744
931.4064 17.32864
931.8885 17.70264
932.3706 18.62077
932.8527 19.90530
933.3348 21.49432
933.8170 23.18088
934.2991 24.17595
934.7812 24.29662
935.2633 24.21774
935.7454 24.49548
936.2275 25.12675
936.7097 26.28612
937.1918 27.95557
937.6739 28.99452
938.1560 29.19601
938.6381 29.50861
939.1202 30.44923
939.6024 31.56268
940.0845 32.07581
940.5666 31.95900
941.0487 32.80540
941.5308 35.24802
942.0129 37.27797
942.4951 38.34685
942.9772 39.16328
943.4593 40.21358
943.9414 41.33240
944.4235 42.06435
944.9056 42.09703
945.3878 42.93138
945.8699 45.68703
946.3520 48.12029
946.8341 49.09923
947.3162 49.56372
947.7983 50.24382
948.2805 51.29172
948.7626 52.86421
949.2447 55.24077
949.7268 57.47380
950.2089 58.87106
950.6910 59.97842
951.1732 61.24092
951.6553 62.63716
952.1374 64.21053
952.6195 65.85951
953.1016 66.94443
953.5837 66.70847
954.0659 66.15562
954.5480 67.01622
955.0301 68.59502
955.5122 69.13197
955.9943 68.58466
956.4764 67.80136
956.9586 67.14273
957.4407 66.31068
957.9228 64.82031
958.4049 62.98311
958.8870 62.20238
959.3691 62.49059
959.8513 61.78423
960.3334 59.60681
960.8155 57.37225
961.2976 55.73441
961.7797 54.90605
962.2618 55.52950
962.7440 57.89951
963.2261 58.72961
963.7082 57.13156
964.1903 55.98790
964.6724 55.99184
965.1545 56.64333
965.6367 57.68871
966.1188 59.07703
966.6009 60.62418
967.0830 62.64001
967.5651 63.94263
968.0472 63.41969
968.5294 63.52071
969.0115 65.77502
969.4936 68.44411
969.9757 69.84998
970.4578 70.11714
970.9399 70.26447
971.4221 70.45645
971.9042 70.90668
972.3863 71.61404
972.8684 72.61049
973.3505 74.24184
973.8326 75.98921
974.3148 77.07275
974.7969 77.41444
975.2790 77.53760
975.7611 77.73862
976.2432 77.78203
976.7253 77.49690
977.2075 76.90982
977.6896 76.11620
978.1717 75.04227
978.6538 73.29608
979.1359 70.85336
979.6180 68.68391
980.1002 67.80983
980.5823 67.47591
981.0644 66.39856
981.5465 64.74829
982.0286 62.96550
982.5107 61.13400
982.9929 59.38132
983.4750 57.75447
983.9571 56.05453
984.4392 53.93761
984.9213 51.56410
985.4034 49.75481
985.8856 48.49162
986.3677 46.97137
986.8498 45.02304
987.3319 43.14383
987.8140 41.67931
988.2961 40.32976
988.7783 38.54112
989.2604 36.28712
989.7425 34.26570
990.2246 32.41870
990.7067 31.05171
991.1888 30.48531
991.6710 29.90274
992.1531 28.72797
992.6352 27.12637
993.1173 25.45137
993.5994 23.57658
994.0815 22.17619
994.5637 21.65344
995.0458 20.99814
995.5279 19.90356
996.0100 18.66792
996.4921 17.45174
996.9742 16.27921
997.4564 15.18642
997.9385 14.11729
998.4206 13.31310
998.9027 13.21832
999.3848 12.87831
999.8669 11.71780
1000.349 10.31638
1000.831 9.158173
1001.313 8.272034
1001.795 7.601196
1002.278 7.203796
1002.760 6.794907
1003.242 6.162643
1003.724 5.596970
1004.206 5.348328
1004.688 5.231049
1005.170 5.090042
1005.652 4.848038
1006.134 4.323944
1006.617 3.328613
1007.099 2.406784
1007.581 1.940674
1008.063 1.710403
1008.545 1.747772
1009.027 1.755325
1009.509 0.9826350
1009.991 0.4625550
1010.474 1.321564
1010.956 0.7140200
1011.438 0.2825320
1011.920 0.6643680
1012.402 0.6518250
1012.884 0.4446410
1013.366 0.1652980
1013.848 0.1667940
1014.330 0.4672850
1014.813 0.5052800
1015.295 0.2408910
1015.777 1.132599
1016.259 0.9951480
1016.741 0.2828060
1017.223 0.3170620
1017.705 0.9952390
1018.187 1.273773
1018.669 0.8542180
1019.152 0.4775700
1019.634 0.8438870
1020.116 1.530289
1020.598 1.622025
1021.080 1.182190
1021.562 0.3966670
1022.044 0.6752780
1022.526 1.035706
1023.008 0.3076020
1023.491 0.6219790
1023.973 0.8684390
1024.455 0.6680600
1024.937 0.8594820
1025.419 1.448181
1025.901 1.397247
1026.383 0.5775450
1026.865 0.3372960
1027.348 1.195313
1027.830 1.459137
1028.312 0.3396760
1028.794 1.635162
1029.276 1.942490
1029.758 0.2352450
1030.240 0.9694210
1030.722 1.431839
1031.204 1.725006
1031.687 2.038116
1032.169 2.359695
1032.651 2.707443
1033.133 3.044250
1033.615 3.129257
1034.097 2.837234
1034.579 2.675674
1035.061 2.613403
1035.544 2.822968
1036.026 3.563095
1036.508 4.339737
1036.990 4.568405
1037.472 4.337784
1037.954 4.260162
1038.436 4.135315
1038.918 4.621765
1039.401 6.219864
1039.883 7.677658
1040.365 8.614380
1040.847 9.132050
1041.329 9.122604
1041.811 8.710419
1042.293 8.842148
1042.775 10.06789
1043.257 10.98518
1043.740 11.17662
1044.222 11.41936
1044.704 12.13113
1045.186 12.95682
1045.668 13.57582
1046.150 13.98882
1046.632 14.23486
1047.114 14.07156
1047.596 14.24591
1048.079 15.33209
1048.561 16.20042
1049.043 16.06372
1049.525 15.68456
1050.007 15.94875
1050.489 16.68770
1050.971 16.97139
1051.453 16.33426
1051.936 16.09930
1052.418 16.82503
1052.900 17.57990
1053.382 18.24228
1053.864 18.56334
1054.346 17.96582
1054.828 16.79111
1055.310 16.23880
1055.792 16.68344
1056.275 17.27188
1056.757 18.36754
1057.239 18.88234
1057.721 17.59212
1058.203 16.03740
1058.685 15.89458
1059.167 16.81505
1059.649 17.33261
1060.131 17.01355
1060.614 16.80479
1061.096 17.25034
1061.578 17.60649
1062.060 17.56158
1062.542 17.23712
1063.024 16.48505
1063.506 15.61478
1063.988 15.36299
1064.471 15.96046
1064.953 16.65926
1065.435 17.39845
1065.917 17.91811
1066.399 17.82152
1066.881 17.66351
1067.363 18.03854
1067.845 18.73875
1068.328 19.24809
1068.810 19.50722
1069.292 19.54683
1069.774 18.91196
1070.256 18.60652
1070.738 19.55289
1071.220 20.67076
1071.702 20.84708
1072.184 20.54575
1072.667 20.79288
1073.149 21.77487
1073.631 22.56454
1074.113 22.67978
1074.595 22.75076
1075.077 23.03520
1075.559 23.36275
1076.041 23.91974
1076.523 24.32788
1077.006 23.73148
1077.488 22.10857
1077.970 20.76845
1078.452 20.39343
1078.934 20.26172
1079.416 20.23320
1079.898 20.10156
1080.380 19.74911
1080.863 19.16728
1081.345 18.14856
1081.827 16.83578
1082.309 15.95744
1082.791 15.96851
1083.273 15.90468
1083.755 15.41335
1084.237 14.67964
1084.719 13.58754
1085.202 12.40440
1085.684 11.46840
1086.166 10.80164
1086.648 10.25142
1087.130 9.927597
1087.612 9.500656
1088.094 8.343018
1088.576 7.416992
1089.058 7.896988
1089.541 8.479279
1090.023 7.339172
1090.505 5.102081
1090.987 3.956970
1091.469 4.600151
1091.951 5.098152
1092.433 4.435997
1092.915 3.759216
1093.397 3.851585
1093.880 3.985527
1094.362 3.211884
1094.844 2.052902
1095.326 1.820869
1095.808 2.760452
1096.290 3.286018
1096.772 2.410057
1097.254 1.636925
1097.737 1.745148
1098.219 1.960838
1098.701 1.783432
1099.183 1.284622
1099.665 0.4476850
1100.147 0.6294400
1100.629 1.141380
1101.111 0.4534070
1101.594 0.1319810
1102.076 0.1715390
1102.558 0.1057590
1103.040 0.1272050
1103.522 0.2181780
1104.004 0.4524990
1104.486 0.7420430
1104.968 0.6416850
1105.450 0.2648160
1105.932 0.6987690
1106.415 3.0440999E-02
1106.897 0.7190630
1107.379 0.8802410
1107.861 0.8014830
1108.343 0.7027740
1108.825 0.5933840
1109.307 0.4600750
1109.789 0.3125080
1110.272 8.8425003E-02
1110.754 0.5220640
1111.236 0.7889790
1111.718 0.2038800
1112.200 0.4453280
1112.682 0.6851270
1113.164 0.6180950
1113.646 0.3492810
1114.129 0.1541900
1114.611 0.3161620
1115.093 0.4416960
1115.575 0.6760100
1116.057 0.3271560
1116.539 1.123726
1117.021 0.9825210
1117.503 0.3879620
1117.985 0.1501390
1118.468 0.6307830
1118.950 1.046791
1119.432 1.423073
1119.914 1.671257
1120.396 1.650375
1120.878 1.777138
1121.360 2.400032
1121.842 2.896400
1122.324 2.631767
1122.807 1.873512
1123.289 1.388794
1123.771 1.176971
1124.253 1.306274
1124.735 1.976738
1125.217 2.397934
1125.699 2.359047
1126.181 2.134483
1126.664 1.783440
1127.146 1.570190
1127.628 2.096428
1128.110 3.270790
1128.592 3.032845
1129.074 1.001984
1129.556 2.3766000E-02
1130.038 0.4284670
1130.521 1.013466
1131.003 1.177361
1131.485 1.116837
1131.967 1.029747
1132.449 0.9179690
1132.931 0.7536770
1133.413 0.5400700
1133.895 0.4876330
1134.377 0.6060870
1134.859 1.025284
1135.342 1.798775
1135.824 2.244781
1136.306 1.811546
1136.788 1.085152
1137.270 1.178284
1137.752 1.897514
1138.234 2.416519
1138.716 2.704781
1139.199 2.445992
1139.681 1.660072
1140.163 0.9403460
1140.645 0.5656200
1141.127 0.3786240
1141.609 0.1801450
1142.091 9.8357998E-02
1142.573 0.5138320
1143.056 1.201668
1143.538 1.613083
1144.020 1.765221
1144.502 1.951202
1144.984 2.228073
1145.466 2.347878
1145.948 2.115860
1146.430 1.768417
1146.912 1.402840
1147.395 1.211884
1147.877 1.643089
1148.359 2.362495
1148.841 2.746872
1149.323 2.769562
1149.805 2.701591
1150.287 2.644241
1150.769 2.680229
1151.251 2.950226
1151.734 3.238251
1152.216 3.403923
1152.698 3.486130
1153.180 3.466591
1153.662 3.426102
1154.144 3.602882
1154.626 3.973816
1155.108 3.981918
1155.591 3.102081
1156.073 2.447525
1156.555 2.588417
1157.037 2.922249
1157.519 3.086014
1158.001 3.188576
1158.483 3.431862
1158.965 3.889526
1159.448 4.593773
1159.930 5.706039
1160.412 6.193703
1160.894 5.369774
1161.376 4.708832
1161.858 4.782669
1162.340 4.866211
1162.822 4.265640
1163.304 3.503647
1163.786 3.520943
1164.269 4.356079
1164.751 4.852692
1165.233 4.797089
1165.715 4.850677
1166.197 5.123161
1166.679 5.297447
1167.161 5.196175
1167.643 5.112434
1168.126 5.333183
1168.608 5.680771
1169.090 5.789742
1169.572 5.705742
1170.054 5.642456
1170.536 5.586723
1171.018 5.322792
1171.500 4.775757
1171.983 4.386375
1172.465 4.407112
1172.947 4.762985
1173.429 5.331886
1173.911 5.929031
1174.393 6.241348
1174.875 6.297112
1175.357 5.731941
1175.839 4.706902
1176.322 4.308907
1176.804 4.763420
1177.286 5.287033
1177.768 5.377914
1178.250 5.264877
1178.732 5.106720
1179.214 5.028008
1179.696 5.341843
1180.178 5.820328
1180.661 6.024353
1181.143 5.973686
1181.625 5.980164
1182.107 6.120682
1182.589 6.034981
1183.071 5.190956
1183.553 4.589142
1184.035 5.237587
1184.518 6.142715
1185.000 6.498955
1185.482 6.531738
1185.964 6.564743
1186.446 6.626671
1186.928 6.625175
1187.410 6.537758
1187.892 6.371445
1188.375 5.791229
1188.857 5.561050
1189.339 6.393929
1189.821 7.160515
1190.303 6.980507
1190.785 6.332382
1191.267 5.952179
1191.749 5.829269
1192.231 5.752579
1192.714 5.717247
1193.196 5.788017
1193.678 6.083900
1194.160 6.143738
1194.642 5.672020
1195.124 5.336090
1195.606 5.714790
1196.088 6.349319
1196.570 6.345734
1197.053 5.709457
1197.535 5.283417
1198.017 5.082275
1198.499 5.177071
1198.981 5.558838
1199.463 5.950157
1199.945 6.245880
1200.427 6.389496
1200.910 6.375519
1201.392 6.180321
1201.874 5.488297
1202.356 4.584717
1202.838 4.334961
1203.320 4.501801
1203.802 4.204765
1204.284 3.535286
1204.766 3.583244
1205.249 4.723228
1205.731 5.668343
1206.213 5.203812
1206.695 4.486267
1207.177 4.612679
1207.659 4.886284
1208.141 4.440552
1208.623 3.739914
1209.105 3.679878
1209.588 4.172379
1210.070 4.314453
1210.552 3.748917
1211.034 3.421974
1211.516 3.883423
1211.998 4.246460
1212.480 4.223145
1212.962 4.004593
1213.445 3.559372
1213.927 3.095276
1214.409 2.930679
1214.891 3.028244
1215.373 3.053680
1215.855 2.892456
1216.337 3.044907
1216.819 3.760300
1217.302 3.927780
1217.784 3.102936
1218.266 2.277939
1218.748 2.119934
1219.230 2.271957
1219.712 2.166412
1220.194 1.906937
1220.676 2.026535
1221.158 2.460770
1221.641 2.773941
1222.123 2.907822
1222.605 2.682251
1223.087 2.094818
1223.569 1.590378
1224.051 1.469467
1224.533 1.397552
1225.015 0.8502040
1225.497 0.2532810
1225.979 0.2182620
1226.462 0.4865880
1226.944 0.6783910
1227.426 0.8157960
1227.908 1.142334
1228.390 1.646576
1228.872 1.866348
1229.354 1.516464
1229.836 1.097504
1230.319 0.6498410
1230.801 0.3813480
1231.283 0.4910580
1231.765 0.7374110
1232.247 1.042709
1232.729 1.279205
1233.211 1.087784
1233.693 0.4538730
1234.176 0.3274540
1234.658 0.9962010
1235.140 1.454269
1235.622 1.667908
1236.104 1.584915
1236.586 1.108459
1237.068 0.5840760
1237.550 0.2248540
1238.032 0.1614990
1238.515 0.7832950
1238.997 1.870255
1239.479 2.158051
1239.961 1.737900
1240.443 1.175110
1240.925 0.5988310
1241.407 0.3681950
1241.889 0.5470730
1242.371 0.6534730
1242.854 0.3823700
1243.336 4.6615999E-02
1243.818 0.1477810
1244.300 0.1481630
1244.782 0.3405760
1245.264 0.8857120
1245.746 0.7654270
1246.228 0.3180540
1246.711 0.4904330
1247.193 1.320404
1247.675 1.619843
1248.157 0.6325680
1248.639 5.6759999E-03
1249.121 0.2677760
1249.603 0.7987520
1250.085 1.346649
1250.568 1.711670
1251.050 1.726532
1251.532 1.333557
1252.014 0.7743990
1252.496 3.8149999E-03
1252.978 0.3713380
1253.460 0.0000000E+00
