#Shining_header
#Data type:raman_database
#CAS:Not entered
#Material scientific name:Krohnkite
#Manufacturer:Not entered
#Laser model:Not entered
#Spectrometer model:Not entered
#Testing unit:Not entered
#Test time:Not entered
#Other experimental details:Not entered
#Shining_data
144.7429 0.0000000E+00
145.2250 0.3511660
145.7072 2.993683
146.1893 6.490662
146.6714 10.76343
147.1535 14.96095
147.6356 18.69994
148.1178 21.77023
148.5999 25.34785
149.0820 30.79915
149.5641 36.07794
150.0462 38.79916
150.5283 37.33710
151.0105 34.85574
151.4926 29.34233
151.9747 22.27675
152.4568 16.68149
152.9389 12.90102
153.4210 10.53363
153.9032 8.967422
154.3853 8.342087
154.8674 8.814835
155.3495 9.812576
155.8316 11.35966
156.3137 13.51100
156.7959 16.52254
157.2780 19.98793
157.7601 23.21651
158.2422 26.69038
158.7243 29.43294
159.2065 31.03569
159.6886 31.47444
160.1707 30.76527
160.6528 28.51495
161.1349 25.08902
161.6170 21.43983
162.0992 17.82059
162.5813 14.14714
163.0634 10.27892
163.5455 5.440994
164.0276 1.404404
164.5097 0.7975920
164.9919 1.328094
165.4740 1.108978
165.9561 0.1315770
166.4382 2.134140
166.9203 4.260529
167.4024 6.727615
167.8846 9.479324
168.3667 12.20596
168.8488 14.38655
169.3309 15.96141
169.8130 16.56860
170.2952 16.80090
170.7773 17.31404
171.2594 18.65997
171.7415 20.21143
172.2236 21.46849
172.7057 22.46152
173.1879 23.48825
173.6700 24.69839
174.1521 26.10156
174.6342 27.70691
175.1163 29.86301
175.5984 32.06488
176.0806 33.63734
176.5627 34.58394
177.0448 35.33701
177.5269 36.43883
178.0090 37.65227
178.4911 38.42947
178.9733 38.49728
179.4554 38.00336
179.9375 37.16991
180.4196 36.02052
180.9017 34.48320
181.3838 32.45509
181.8660 29.98859
182.3481 27.15868
182.8302 23.86671
183.3123 20.27611
183.7944 16.70312
184.2766 13.09006
184.7587 9.663788
185.2408 6.590851
185.7229 3.894608
186.2050 1.522186
186.6871 0.6245420
187.1693 2.484100
187.6514 3.569168
188.1335 3.784058
188.6156 3.594528
189.0977 3.589417
189.5798 3.752853
190.0620 3.955002
190.5441 4.267639
191.0262 4.610916
191.5083 4.397125
191.9904 3.506332
192.4725 2.289154
192.9547 1.342316
193.4368 0.6725010
193.9189 1.3641000E-02
194.4010 0.7046360
194.8831 1.494247
195.3652 2.611786
195.8474 4.122467
196.3295 5.891922
196.8116 7.670914
197.2937 9.449524
197.7758 11.28419
198.2579 13.10408
198.7401 14.90065
199.2222 17.14619
199.7043 19.94989
200.1864 23.09190
200.6685 26.18520
201.1507 29.25955
201.6328 32.06647
202.1149 34.31551
202.5970 36.09207
203.0791 38.18925
203.5612 40.69807
204.0434 43.52246
204.5255 46.37817
205.0076 49.22723
205.4897 52.23294
205.9718 55.59842
206.4539 59.43274
206.9361 62.97353
207.4182 66.14105
207.9003 68.97456
208.3824 71.64951
208.8645 74.13954
209.3466 76.55846
209.8288 79.05933
210.3109 81.74670
210.7930 84.06538
211.2751 85.95828
211.7572 87.44803
212.2393 88.66960
212.7215 89.64142
213.2036 90.28534
213.6857 90.51598
214.1678 90.25139
214.6499 89.83443
215.1320 89.28954
215.6142 88.60344
216.0963 87.80688
216.5784 87.05807
217.0605 85.91803
217.5426 84.03964
218.0247 81.24277
218.5069 78.30405
218.9890 75.22878
219.4711 72.06384
219.9532 69.00797
220.4353 66.16574
220.9175 63.21609
221.3996 59.81892
221.8817 55.67635
222.3638 51.92552
222.8459 48.79819
223.3280 46.17494
223.8102 43.59093
224.2923 40.89604
224.7744 38.32155
225.2565 36.06795
225.7386 34.30457
226.2207 32.47461
226.7029 30.60482
227.1850 28.64130
227.6671 26.36402
228.1492 23.49427
228.6313 20.70962
229.1134 18.46236
229.5956 16.97401
230.0777 15.45507
230.5598 13.67442
231.0419 11.78743
231.5240 10.57468
232.0062 10.44468
232.4883 10.43513
232.9704 9.898376
233.4525 8.354118
233.9346 7.373444
234.4167 7.313438
234.8989 7.940681
235.3810 8.129326
235.8631 7.566795
236.3452 6.970627
236.8273 6.724495
237.3094 6.862877
237.7916 7.280426
238.2737 8.053871
238.7558 9.105392
239.2379 10.10880
239.7200 10.98251
240.2021 11.91641
240.6843 13.02611
241.1664 14.38440
241.6485 15.75223
242.1306 17.06212
242.6127 18.36544
243.0948 19.81823
243.5770 21.28488
244.0591 23.05341
244.5412 25.24052
245.0233 28.07893
245.5054 30.88070
245.9876 33.66917
246.4697 36.47871
246.9518 39.41588
247.4339 42.49376
247.9160 45.66631
248.3981 48.87572
248.8803 52.14629
249.3624 55.47093
249.8445 58.89847
250.3266 62.43799
250.8087 66.01698
251.2908 69.40179
251.7730 73.10192
252.2551 77.38831
252.7372 82.66210
253.2193 87.48403
253.7014 91.58790
254.1835 95.31268
254.6657 99.41504
255.1478 104.0784
255.6299 108.8002
256.1120 113.4240
256.5941 117.8851
257.0763 122.3351
257.5584 126.7519
258.0405 131.2226
258.5226 135.9077
259.0047 141.0410
259.4868 145.9932
259.9690 150.4140
260.4511 154.1235
260.9332 158.2170
261.4153 163.1800
261.8974 168.2051
262.3795 171.7440
262.8617 173.4066
263.3438 174.4837
263.8259 175.4730
264.3080 176.4927
264.7901 176.6060
265.2722 175.9258
265.7544 174.3260
266.2365 171.5379
266.7186 167.3544
267.2007 162.5835
267.6828 157.4273
268.1649 151.7951
268.6471 146.0007
269.1292 139.8825
269.6113 133.7565
270.0934 127.9956
270.5755 122.5655
271.0576 117.3622
271.5398 112.2685
272.0219 107.2491
272.5040 102.8785
272.9861 99.32618
273.4682 96.22565
273.9503 93.08561
274.4325 89.81355
274.9146 87.12067
275.3967 85.24235
275.8788 84.09473
276.3610 83.28158
276.8431 82.88531
277.3252 82.56641
277.8073 81.83579
278.2894 80.60152
278.7715 80.07314
279.2537 80.63286
279.7358 82.06632
280.2179 83.49268
280.7000 84.95087
281.1821 86.25633
281.6642 87.07889
282.1464 87.41290
282.6285 88.27704
283.1106 89.96241
283.5927 92.17788
284.0748 94.14487
284.5569 95.84467
285.0391 97.49107
285.5212 99.21770
286.0033 101.0255
286.4854 102.9950
286.9675 105.2464
287.4496 107.4849
287.9318 108.9847
288.4139 109.7421
288.8960 110.5043
289.3781 111.9437
289.8602 113.8679
290.3423 115.2119
290.8245 115.7876
291.3066 116.0095
291.7887 116.5595
292.2708 117.4022
292.7529 118.1359
293.2350 118.5896
293.7172 118.7603
294.1993 118.6270
294.6814 118.1866
295.1635 117.4741
295.6456 116.4848
296.1277 115.2463
296.6099 113.8796
297.0920 112.5852
297.5741 111.1925
298.0562 109.4074
298.5383 107.2448
299.0204 104.6785
299.5026 101.6864
299.9847 98.28979
300.4668 94.41928
300.9489 89.97315
301.4311 85.14538
301.9132 80.23815
302.3953 75.21607
302.8774 70.27383
303.3595 65.46600
303.8416 60.82493
304.3238 56.26447
304.8059 51.78342
305.2880 47.47134
305.7701 43.52803
306.2522 39.90063
306.7343 36.51709
307.2165 33.26564
307.6986 30.20501
308.1807 27.39321
308.6628 24.77623
309.1449 22.45518
309.6270 20.57460
310.1092 19.03255
310.5913 17.56847
311.0734 16.05584
311.5555 14.54014
312.0376 13.05122
312.5197 11.53132
313.0019 10.20143
313.4840 9.275330
313.9661 8.606384
314.4482 7.884605
314.9303 6.939072
315.4124 5.927429
315.8946 4.905838
316.3767 3.836815
316.8588 2.967987
317.3409 2.610382
317.8230 2.450073
318.3051 2.075409
318.7873 0.9825820
319.2694 2.5177000E-02
319.7515 0.6005170
320.2336 0.7038270
320.7157 0.6737980
321.1978 0.3167040
321.6800 1.1980000E-03
322.1621 5.2689001E-02
322.6442 0.9644320
323.1263 1.822609
323.6084 2.471420
324.0905 2.904518
324.5727 3.100815
325.0548 2.757751
325.5369 2.364952
326.0190 2.218323
326.5012 2.574295
326.9833 2.904030
327.4654 3.249695
327.9475 3.560547
328.4296 3.625549
328.9117 3.200882
329.3939 2.745018
329.8760 2.445061
330.3581 2.413727
330.8402 2.332352
331.3223 2.178551
331.8044 1.982521
332.2866 1.810974
332.7687 1.727219
333.2508 1.578850
333.7329 1.289894
334.2150 0.8068470
334.6971 0.4573140
335.1793 0.3330150
335.6614 0.2489320
336.1435 5.1879998E-02
336.6256 0.6607210
337.1077 1.248123
337.5898 1.664017
338.0720 1.937202
338.5541 2.581123
339.0362 3.753014
339.5183 4.962784
340.0004 5.645050
340.4825 5.688583
340.9647 6.077629
341.4468 7.090744
341.9289 8.500381
342.4110 9.517113
342.8931 10.06141
343.3752 10.67333
343.8574 11.84316
344.3395 13.52785
344.8216 14.87749
345.3037 15.74360
345.7858 16.36665
346.2679 17.09736
346.7501 17.94281
347.2322 18.91963
347.7143 20.13557
348.1964 21.50272
348.6785 22.75642
349.1607 23.90026
349.6428 24.94438
350.1249 25.94773
350.6070 26.88251
351.0891 27.67919
351.5713 28.26997
352.0534 28.71519
352.5355 29.08398
353.0176 29.37412
353.4997 29.65344
353.9818 29.98419
354.4640 30.33490
354.9461 30.68713
355.4282 31.17661
355.9103 31.47740
356.3924 31.16721
356.8745 30.37363
357.3567 29.60964
357.8388 29.18983
358.3209 28.90789
358.8030 28.62185
359.2851 28.37521
359.7672 27.93285
360.2494 26.98495
360.7315 25.76417
361.2136 24.71442
361.6957 24.25211
362.1778 23.78754
362.6599 22.97384
363.1421 21.73113
363.6242 20.55422
364.1063 19.73759
364.5884 18.99495
365.0705 18.03997
365.5526 16.67186
366.0348 15.23944
366.5169 13.66899
366.9990 11.99458
367.4811 10.73855
367.9632 10.42213
368.4453 10.21107
368.9275 9.626877
369.4096 8.233513
369.8917 7.054512
370.3738 6.144493
370.8559 5.456406
371.3380 4.881561
371.8202 4.494919
372.3023 4.114098
372.7844 3.647240
373.2665 3.034088
373.7487 2.592804
374.2308 2.371750
374.7129 2.268013
375.1950 2.164909
375.6771 2.088272
376.1592 1.922974
376.6414 1.554588
377.1235 0.9986190
377.6056 0.7312620
378.0877 0.8460160
378.5698 1.078575
379.0519 1.231644
379.5341 1.299606
380.0162 1.322205
380.4983 1.208725
380.9804 1.059952
381.4625 1.145119
381.9446 1.477493
382.4268 1.811890
382.9089 2.046822
383.3910 2.197456
383.8731 2.289665
384.3552 2.279877
384.8373 2.241425
385.3195 2.279556
385.8016 2.361000
386.2837 2.405640
386.7658 2.296463
387.2479 2.205063
387.7300 2.417053
388.2122 2.899490
388.6943 3.324409
389.1764 3.433914
389.6585 3.351357
390.1406 3.197136
390.6227 2.891960
391.1049 2.678955
391.5870 2.757690
392.0691 3.083122
392.5512 3.474487
393.0333 3.887894
393.5154 4.291176
393.9976 4.684669
394.4797 5.073608
394.9618 5.410927
395.4439 5.548431
395.9260 5.663986
396.4081 5.993813
396.8903 6.856255
397.3724 7.683670
397.8545 8.369270
398.3366 8.908318
398.8188 9.222717
399.3009 8.883873
399.7830 8.605858
400.2651 8.850021
400.7472 10.05514
401.2293 11.10828
401.7115 11.83334
402.1936 12.38567
402.6757 13.25506
403.1578 14.58149
403.6399 15.98909
404.1220 17.30487
404.6042 18.51093
405.0863 19.77209
405.5684 21.07923
406.0505 22.43109
406.5326 23.77785
407.0147 25.09943
407.4969 26.63995
407.9790 28.57529
408.4611 30.76786
408.9432 32.60268
409.4253 34.03637
409.9074 35.47499
410.3896 37.37589
410.8717 39.60255
411.3538 41.51818
411.8359 42.95131
412.3180 44.19093
412.8001 45.58792
413.2823 47.10603
413.7644 48.70973
414.2465 50.41098
414.7286 52.16273
415.2107 53.94250
415.6928 55.73302
416.1750 57.53423
416.6571 59.37377
417.1392 61.19941
417.6213 62.99309
418.1034 64.44568
418.5855 66.16393
419.0677 68.53129
419.5498 71.47049
420.0319 74.59636
420.5140 77.85892
420.9961 81.22479
421.4782 84.65170
421.9604 88.04176
422.4425 91.77229
422.9246 95.88202
423.4067 100.3453
423.8889 105.1908
424.3710 110.5726
424.8531 116.1379
425.3352 121.8650
425.8173 127.7493
426.2994 133.2070
426.7816 137.8923
427.2637 142.4448
427.7458 147.3153
428.2279 152.7963
428.7100 157.9650
429.1921 162.8357
429.6743 167.2953
430.1564 170.7165
430.6385 172.8951
431.1206 174.8139
431.6027 176.6511
432.0848 178.4574
432.5670 181.1557
433.0491 184.8744
433.5312 189.0032
434.0133 192.7942
434.4954 196.3753
434.9775 200.6246
435.4597 205.8071
435.9418 211.7032
436.4239 217.8590
436.9060 224.2545
437.3881 231.1060
437.8702 238.4713
438.3524 246.3889
438.8345 255.0794
439.3166 264.6644
439.7987 274.3228
440.2808 283.5012
440.7629 292.3387
441.2451 300.9578
441.7272 310.2187
442.2093 318.5378
442.6914 325.0548
443.1735 329.8425
443.6556 333.4571
444.1378 335.9620
444.6199 337.4654
445.1020 337.9515
445.5841 337.0408
446.0662 335.8801
446.5483 334.2365
447.0305 332.5186
447.5126 331.3957
447.9947 330.9381
448.4768 331.0047
448.9590 331.5198
449.4411 332.4767
449.9232 334.2003
450.4053 336.8189
450.8874 340.0314
451.3695 343.4351
451.8517 346.7838
452.3338 351.5469
452.8159 358.0716
453.2980 365.7454
453.7801 373.3513
454.2622 380.7645
454.7444 388.9788
455.2265 398.3895
455.7086 408.9561
456.1907 420.1968
456.6728 432.2785
457.1549 444.6879
457.6371 457.9273
458.1192 471.3095
458.6013 483.6182
459.0834 494.6278
459.5655 504.0822
460.0476 512.2628
460.5298 518.7189
461.0119 521.7579
461.4940 521.3703
461.9761 516.7727
462.4582 507.4667
462.9403 493.3398
463.4225 474.5250
463.9046 449.8527
464.3867 420.9381
464.8688 389.9245
465.3509 354.7667
465.8330 320.1089
466.3152 286.3994
466.7973 253.9545
467.2794 224.0421
467.7615 196.0511
468.2436 170.8469
468.7257 148.7318
469.2079 130.2212
469.6900 113.5114
470.1721 98.42388
470.6542 85.49030
471.1363 75.90545
471.6184 70.79989
472.1006 64.42226
472.5827 55.20793
473.0648 44.41885
473.5469 35.99316
474.0291 30.05530
474.5112 25.15916
474.9933 20.47823
475.4754 16.12476
475.9575 12.74732
476.4396 10.43161
476.9218 8.541054
477.4039 6.443245
477.8860 4.274704
478.3681 2.386971
478.8502 0.9365920
479.3323 0.1977310
479.8145 1.140144
480.2966 1.924057
480.7787 2.561256
481.2608 3.093315
481.7429 3.519989
482.2250 3.807823
482.7072 3.908821
483.1893 3.867973
483.6714 3.655922
484.1535 3.346001
484.6356 3.021637
485.1177 2.998940
485.5999 2.682419
486.0820 1.678665
486.5641 0.2119220
487.0462 0.8139800
487.5283 1.020966
488.0104 1.295815
488.4926 1.982529
488.9747 3.113640
489.4568 4.437744
489.9389 5.990303
490.4210 7.654556
490.9031 9.273155
491.3853 10.84712
491.8674 12.46000
492.3495 14.08221
492.8316 15.79100
493.3137 17.83842
493.7958 20.19859
494.2780 22.50350
494.7601 24.31516
495.2422 25.97095
495.7243 28.13308
496.2064 30.87403
496.6885 33.69530
497.1707 36.32249
497.6528 38.80359
498.1349 41.19627
498.6170 43.44324
499.0992 45.74688
499.5813 48.35589
500.0634 51.12697
500.5455 53.73471
501.0276 55.86099
501.5097 57.98243
501.9919 60.39687
502.4740 63.19463
502.9561 65.66531
503.4382 67.32578
503.9203 68.97735
504.4024 71.23212
504.8846 74.55707
505.3667 77.47039
505.8488 79.83070
506.3309 81.74864
506.8130 83.44389
507.2951 84.90536
507.7773 86.17138
508.2594 87.17666
508.7415 87.97476
509.2236 89.03870
509.7057 90.41037
510.1878 91.52429
510.6700 91.89404
511.1521 91.63653
511.6342 91.12537
512.1163 90.45504
512.5984 89.43071
513.0806 87.83437
513.5627 85.73283
514.0448 83.26554
514.5269 80.48510
515.0090 77.36500
515.4911 73.69985
515.9733 69.56704
516.4554 65.60467
516.9375 62.32925
517.4196 59.05946
517.9017 55.33721
518.3839 50.82353
518.8660 46.54518
519.3481 42.71691
519.8302 39.14787
520.3123 35.71278
520.7944 32.35404
521.2766 29.19556
521.7587 26.25642
522.2408 23.54433
522.7229 20.94398
523.2050 18.40283
523.6871 16.17187
524.1693 14.50269
524.6514 13.36755
525.1335 11.96875
525.6156 10.25582
526.0977 8.576508
526.5798 7.313377
527.0620 6.349815
527.5441 5.356163
528.0262 4.234589
528.5083 3.096924
528.9904 1.978951
529.4725 0.9430690
529.9547 0.1544570
530.4368 9.1805004E-02
530.9189 0.2279430
531.4010 0.5505220
531.8831 1.071617
532.3652 1.508659
532.8474 1.781647
533.3295 1.942459
533.8116 2.021744
534.2937 1.959030
534.7758 1.914932
535.2579 1.841148
535.7401 1.812019
536.2222 1.971954
536.7043 2.498505
537.1864 2.812775
537.6685 2.818108
538.1506 2.548698
538.6328 2.033188
539.1149 1.189980
539.5970 0.5387650
540.0791 0.4997330
540.5612 0.9309920
541.0433 1.291992
541.5255 1.569786
542.0076 1.615242
542.4897 1.187111
542.9718 0.4477920
543.4539 0.3629300
543.9360 1.307625
544.4182 2.171623
544.9003 2.482597
545.3824 2.486717
545.8645 2.797516
546.3466 3.995415
546.8287 5.255653
547.3109 6.150131
547.7930 6.644592
548.2751 7.259254
548.7572 8.152817
549.2393 9.124702
549.7214 10.07090
550.2036 10.98789
550.6857 11.90121
551.1678 12.86741
551.6499 13.77747
552.1320 14.39652
552.6141 14.65294
553.0963 15.12010
553.5784 15.97652
554.0605 17.09053
554.5426 18.16719
555.0247 19.20418
555.5068 20.15495
555.9890 20.87799
556.4711 21.52438
556.9532 22.36971
557.4353 23.42387
557.9174 24.54865
558.3995 25.59886
558.8817 26.66983
559.3638 27.94323
559.8459 29.78168
560.3281 31.14018
560.8102 31.02412
561.2923 30.27841
561.7744 30.23197
562.2565 32.14168
562.7386 33.65044
563.2208 34.11588
563.7029 33.70055
564.1850 33.57961
564.6671 33.92365
565.1492 34.25974
565.6313 34.26704
566.1135 33.88849
566.5956 34.06498
567.0777 34.93719
567.5598 35.86494
568.0419 36.15639
568.5240 35.90276
569.0062 35.56879
569.4883 35.22971
569.9704 34.88786
570.4525 34.51909
570.9346 34.14954
571.4167 33.86478
571.8989 33.82487
572.3810 33.77612
572.8631 33.56186
573.3452 33.18647
573.8273 32.68450
574.3094 31.84119
574.7916 31.05793
575.2737 30.60667
575.7558 30.69733
576.2379 30.51707
576.7200 29.82767
577.2021 29.04694
577.6843 28.56217
578.1664 28.51481
578.6485 28.34670
579.1306 27.97691
579.6127 27.47720
580.0948 26.96088
580.5770 26.42976
581.0591 25.90805
581.5412 25.40322
582.0233 24.92088
582.5054 24.51657
582.9875 24.17709
583.4697 23.75021
583.9518 22.91761
584.4339 22.06581
584.9160 21.71511
585.3981 21.98434
585.8802 22.14043
586.3624 21.69314
586.8445 21.02189
587.3266 20.45786
587.8087 20.13486
588.2908 19.82777
588.7729 19.46984
589.2551 19.11820
589.7372 18.89967
590.2193 18.95288
590.7014 18.87956
591.1835 18.53320
591.6656 17.99205
592.1478 17.65582
592.6299 17.53720
593.1120 17.52555
593.5941 17.47556
594.0762 17.45615
594.5583 17.83340
595.0405 18.64374
595.5226 19.48235
596.0047 19.90176
596.4868 20.17337
596.9689 20.72132
597.4510 21.71207
597.9332 22.72035
598.4153 23.52888
598.8974 24.18068
599.3795 24.76610
599.8616 25.24069
600.3438 25.77841
600.8259 26.50970
601.3080 27.34023
601.7901 27.92278
602.2722 27.99111
602.7543 28.25096
603.2365 29.01523
603.7186 30.26702
604.2007 31.43842
604.6828 32.49996
605.1649 33.56359
605.6470 34.75225
606.1292 36.01811
606.6113 37.22269
607.0934 38.33257
607.5755 39.36198
608.0576 40.37360
608.5398 41.29183
609.0219 41.95526
609.5040 42.16719
609.9861 42.33164
610.4683 42.89040
610.9504 43.55677
611.4325 43.71374
611.9146 43.21402
612.3967 42.17429
612.8788 40.45107
613.3610 38.12795
613.8431 35.84792
614.3252 33.62910
614.8073 31.44988
615.2894 29.15355
615.7715 26.71392
616.2537 24.94228
616.7358 23.94185
617.2179 23.12960
617.7000 21.81760
618.1821 20.19697
618.6642 18.98692
619.1464 18.31647
619.6285 17.96569
620.1106 17.77834
620.5927 17.77504
621.0748 17.90887
621.5569 18.15144
622.0391 18.49850
622.5212 18.97679
623.0033 19.55933
623.4854 20.22118
623.9675 20.79522
624.4496 21.49442
624.9318 22.43608
625.4139 23.62268
625.8960 24.72433
626.3781 25.61272
626.8602 26.68296
627.3423 28.31502
627.8245 30.48933
628.3066 32.29182
628.7887 33.65349
629.2708 34.82823
629.7529 36.03283
630.2350 37.24916
630.7172 38.48978
631.1993 39.78732
631.6814 41.04948
632.1635 42.18516
632.6456 43.26485
633.1277 44.36132
633.6099 45.43511
634.0920 46.50074
634.5741 47.56847
635.0562 48.68504
635.5383 49.98000
636.0204 51.64439
636.5026 53.16405
636.9847 54.35620
637.4668 55.25481
637.9489 56.40784
638.4310 57.93456
638.9131 59.17504
639.3953 59.46509
639.8774 59.05833
640.3595 59.14275
640.8416 59.79125
641.3237 60.48831
641.8058 60.74693
642.2880 60.74752
642.7701 60.76148
643.2522 60.92402
643.7343 60.89679
644.2164 60.11840
644.6985 59.17034
645.1807 58.83466
645.6628 59.89355
646.1449 60.81232
646.6270 61.15436
647.1091 61.26598
647.5912 62.04099
648.0734 63.64990
648.5555 65.46526
649.0376 67.32751
649.5197 69.25190
650.0018 71.38119
650.4839 73.73685
650.9661 75.88199
651.4482 77.41014
651.9303 78.61018
652.4124 80.12701
652.8945 81.97286
653.3766 83.45517
653.8588 84.30927
654.3409 84.48447
654.8230 83.89853
655.3051 82.42380
655.7872 80.51281
656.2693 78.12780
656.7515 75.41094
657.2336 72.49946
657.7158 69.32792
658.1979 66.08952
658.6800 62.77111
659.1621 59.41732
659.6442 56.06086
660.1263 52.71218
660.6085 49.52823
661.0906 46.57885
661.5727 43.83768
662.0548 41.17617
662.5369 38.62441
663.0190 36.29646
663.5012 34.46145
663.9833 32.71373
664.4654 30.66979
664.9475 28.39092
665.4296 26.26992
665.9117 24.43240
666.3939 22.79193
666.8760 21.37238
667.3581 20.21349
667.8402 18.90195
668.3223 17.31207
668.8044 15.74767
669.2866 14.49839
669.7687 13.57525
670.2508 12.49840
670.7329 11.21006
671.2150 9.888027
671.6971 8.634380
672.1793 7.485470
672.6614 6.591293
673.1435 6.051140
673.6256 5.568195
674.1077 4.820290
674.5898 3.982056
675.0720 3.335732
675.5541 3.353268
676.0362 3.132362
676.5183 2.194004
677.0004 0.8471150
677.4825 0.1145670
677.9647 0.7831190
678.4468 0.7996520
678.9289 0.3314670
679.4110 2.158249
679.8931 2.269043
680.3752 0.5597800
680.8574 1.160191
681.3395 1.774609
681.8216 1.696835
682.3037 1.724201
682.7858 1.861702
683.2679 2.008228
683.7501 2.097832
684.2322 2.169373
684.7143 2.287746
685.1964 2.483654
685.6785 2.564915
686.1606 2.421432
686.6428 2.182732
687.1249 1.931831
687.6070 1.608379
688.0891 1.409256
688.5712 1.332012
689.0533 1.381493
689.5355 1.705544
690.0176 2.279007
690.4997 2.367035
690.9818 1.724697
691.4639 0.8750650
691.9460 0.5528030
692.4282 0.5724640
692.9103 0.5265660
693.3924 0.1612280
693.8745 0.1943860
694.3566 0.2624660
694.8387 0.1782650
695.3209 0.2602420
695.8030 0.9214480
696.2851 1.355949
696.7672 1.213043
697.2493 0.6672060
697.7314 0.6807520
698.2136 1.411003
698.6957 2.183311
699.1778 2.695564
699.6599 3.013660
700.1420 3.448608
700.6241 3.992828
701.1063 4.466160
701.5884 4.652588
702.0705 4.744808
702.5526 4.970375
703.0347 5.346401
703.5168 5.802597
703.9990 6.336338
704.4811 6.912899
704.9632 7.533173
705.4453 8.295525
705.9274 8.793232
706.4095 8.807518
706.8917 8.801891
707.3738 9.231922
707.8560 10.15542
708.3381 10.91770
708.8202 11.46440
709.3023 11.86563
709.7844 12.17301
710.2665 12.40453
710.7487 12.56659
711.2308 12.54344
711.7129 12.75343
712.1950 13.77514
712.6771 15.18060
713.1592 16.32703
713.6414 16.91444
714.1235 17.33014
714.6056 17.45511
715.0877 17.49955
715.5698 17.91335
716.0519 18.86602
716.5341 19.73354
717.0162 20.33380
717.4983 20.76582
717.9804 21.30553
718.4625 21.94671
718.9446 22.54912
719.4268 23.02276
719.9089 23.43307
720.3910 23.82775
720.8731 24.22441
721.3552 24.71188
721.8373 25.39510
722.3195 26.12407
722.8016 26.81987
723.2837 27.47018
723.7658 28.14382
724.2479 28.91893
724.7300 29.60882
725.2122 30.08890
725.6943 30.35491
726.1764 30.72321
726.6585 31.20290
727.1406 31.74931
727.6227 32.40012
728.1049 33.08702
728.5870 33.58918
729.0691 33.88280
729.5512 34.22401
730.0333 34.86446
730.5154 35.60809
730.9976 36.27030
731.4797 36.82559
731.9618 37.27742
732.4439 37.51140
732.9260 37.75385
733.4081 38.15483
733.8903 38.72856
734.3724 39.37130
734.8545 40.14975
735.3366 40.87008
735.8187 41.17455
736.3008 41.15223
736.7830 41.15919
737.2651 41.18671
737.7472 41.28501
738.2293 41.57297
738.7114 41.87757
739.1935 42.08290
739.6757 42.09607
740.1578 42.08183
740.6399 42.08015
741.1220 42.07045
741.6041 42.03277
742.0862 42.04061
742.5684 41.85056
743.0505 41.34486
743.5326 40.71093
744.0147 40.42981
744.4968 40.47184
744.9789 40.36436
745.4611 39.79213
745.9432 39.16799
746.4253 39.21622
746.9074 39.64953
747.3895 39.72466
747.8716 38.85789
748.3538 37.83089
748.8359 36.89344
749.3180 36.10083
749.8001 35.59899
750.2822 35.60773
750.7643 35.47185
751.2465 34.98324
751.7286 34.21441
752.2107 33.43172
752.6928 32.61746
753.1749 32.06612
753.6570 32.20820
754.1392 32.60121
754.6213 32.49753
755.1034 31.95342
755.5855 31.35058
756.0676 31.01665
756.5498 30.58291
757.0319 29.66916
757.5140 28.24459
757.9962 27.32079
758.4783 27.26397
758.9604 27.25564
759.4425 26.92682
759.9246 26.28816
760.4067 25.65263
760.8889 25.02011
761.3710 24.42031
761.8531 23.84628
762.3352 23.33010
762.8173 22.98780
763.2994 22.81811
763.7816 22.57748
764.2637 22.19140
764.7458 21.62435
765.2279 20.81506
765.7100 19.68702
766.1921 18.61657
766.6743 17.47077
767.1564 16.57199
767.6385 16.24322
768.1206 16.58512
768.6027 16.46321
769.0848 15.81462
769.5670 15.03845
770.0491 14.51580
770.5312 14.11937
771.0133 13.55976
771.4954 12.78384
771.9775 12.06744
772.4597 11.64856
772.9418 11.32623
773.4239 10.90965
773.9060 10.27474
774.3881 9.816212
774.8702 9.724144
775.3524 9.609760
775.8345 9.078674
776.3166 8.079021
776.7987 7.334335
777.2808 6.928104
777.7629 6.608902
778.2451 6.116348
778.7272 5.513203
779.2093 4.877663
779.6914 4.182697
780.1735 3.674305
780.6556 3.734562
781.1378 3.934692
781.6199 3.852264
782.1020 3.183918
782.5841 2.618996
783.0662 2.149632
783.5483 1.791237
784.0305 1.596935
784.5126 1.571213
784.9947 1.510765
785.4768 1.386700
785.9589 1.249573
786.4410 1.224068
786.9232 1.212620
787.4053 1.003433
787.8874 0.4447940
788.3695 3.9744999E-02
788.8516 0.1667790
789.3337 0.1529310
789.8159 0.2531130
790.2980 0.6411060
790.7801 0.8540340
791.2622 0.7984200
791.7443 0.6703380
792.2264 0.7855150
792.7086 1.121292
793.1907 1.251827
793.6728 1.094650
794.1549 0.7726780
794.6370 0.2010540
795.1191 0.3814200
795.6013 0.5513610
796.0834 5.5817001E-02
796.5655 0.5806620
797.0476 0.7149700
797.5297 0.6013490
798.0118 0.4341130
798.4940 0.2720340
798.9761 0.1165120
799.4582 0.8674740
799.9403 1.636742
800.4224 1.834080
800.9045 1.584961
801.3867 1.694927
801.8688 2.402184
802.3509 3.211418
802.8330 3.530872
803.3151 3.679260
803.7972 4.109646
804.2794 5.188713
804.7615 6.143330
805.2436 6.684391
805.7258 7.103806
806.2079 7.691761
806.6900 8.451527
807.1721 9.408215
807.6542 10.61543
808.1364 11.85499
808.6185 12.72482
809.1006 13.38035
809.5827 14.32119
810.0648 15.74046
810.5469 17.19420
811.0291 18.42295
811.5112 19.47089
811.9933 20.40485
812.4754 20.94331
812.9575 21.82847
813.4396 23.17557
813.9218 24.79311
814.4039 26.53481
814.8860 28.43341
815.3681 30.00676
815.8502 31.17359
816.3323 32.17382
816.8145 33.29484
817.2966 34.44169
817.7787 35.46901
818.2608 36.34452
818.7429 37.08802
819.2250 37.74195
819.7072 38.24460
820.1893 38.52487
820.6714 38.58520
821.1535 38.44470
821.6356 38.03550
822.1177 37.51928
822.5999 37.14003
823.0820 36.87461
823.5641 36.43153
824.0462 35.74881
824.5283 34.87653
825.0104 33.76582
825.4926 32.63945
825.9747 31.81459
826.4568 31.51389
826.9389 30.94654
827.4210 29.64394
827.9031 28.23282
828.3853 27.10780
828.8674 26.32602
829.3495 25.64666
829.8316 25.11920
830.3137 24.49187
830.7958 23.41505
831.2780 22.10170
831.7601 20.96886
832.2422 20.06983
832.7243 19.38005
833.2064 18.99648
833.6885 18.74910
834.1707 18.49181
834.6528 18.16635
835.1349 18.04219
835.6170 18.12669
836.0991 18.39980
836.5812 18.92593
837.0634 19.67873
837.5455 20.23647
838.0276 20.60116
838.5097 20.92852
838.9918 21.31011
839.4739 21.74158
839.9561 22.17995
840.4382 22.62915
840.9203 23.24400
841.4024 24.40716
841.8845 25.42078
842.3666 25.97412
842.8488 26.07402
843.3309 26.08274
843.8130 25.99790
844.2951 25.83925
844.7772 25.66416
845.2593 25.40743
845.7415 24.90321
846.2236 24.17012
846.7057 23.32679
847.1878 22.41970
847.6699 21.44296
848.1520 20.36221
848.6342 19.19482
849.1163 17.99723
849.5984 16.70094
850.0805 15.53527
850.5626 14.60390
851.0447 13.84899
851.5269 13.05578
852.0090 12.24964
852.4911 11.56971
852.9732 11.06287
853.4553 10.67593
853.9374 10.47337
854.4196 10.32505
854.9017 9.976387
855.3839 8.991150
855.8660 8.292725
856.3481 8.187748
856.8302 8.407955
857.3123 8.340370
857.7944 7.962109
858.2766 7.548504
858.7587 7.134251
859.2408 6.785522
859.7229 6.625000
860.2050 6.600990
860.6871 6.565941
861.1693 5.347008
861.6514 5.950943
862.1335 6.184341
862.6156 6.067039
863.0977 4.550259
863.5798 4.839500
864.0620 4.404205
864.5441 3.938782
865.0262 4.480785
865.5083 3.164986
865.9904 3.689983
866.4725 3.479500
866.9547 3.604858
867.4368 2.363518
867.9189 2.117752
868.4010 2.007076
868.8831 1.672256
869.3652 0.8853870
869.8474 0.3438570
870.3295 0.1425700
870.8116 3.8883001E-02
871.2937 0.1593440
871.7758 0.4383320
872.2579 0.6279720
872.7401 0.7241130
873.2222 0.7931790
873.7043 0.8851090
874.1864 0.9734340
874.6685 1.042656
875.1506 1.102657
875.6328 1.108150
876.1149 1.035301
876.5970 0.8982090
877.0791 0.6646420
877.5612 0.3346560
878.0433 8.9638002E-02
878.5255 4.4426002E-02
879.0076 0.2517280
879.4897 0.7967680
879.9718 1.383961
880.4539 1.365032
880.9360 0.9693600
881.4182 1.014866
881.9003 2.362431
882.3824 3.631371
882.8645 4.223572
883.3466 4.411785
883.8287 4.879684
884.3109 5.658611
884.7930 6.632866
885.2751 7.857925
885.7572 9.021553
886.2393 9.511158
886.7214 9.558861
887.2036 9.634529
887.6857 9.290035
888.1678 10.46131
888.6499 12.19114
889.1320 13.55042
889.6141 14.55891
890.0963 14.16830
890.5784 15.58347
891.0605 16.27407
891.5426 16.93466
892.0247 18.60272
892.5068 18.41293
892.9890 20.06435
893.4711 20.98009
893.9532 20.92067
894.4353 21.98727
894.9174 23.05446
895.3995 24.25656
895.8817 25.63540
896.3638 26.94983
896.8459 28.08922
897.3280 29.37072
897.8101 30.94230
898.2922 32.81638
898.7744 35.06118
899.2565 37.64910
899.7386 40.28004
900.2207 42.75574
900.7028 45.22970
901.1849 47.81455
901.6671 50.50178
902.1492 53.38268
902.6313 56.42994
903.1134 59.62531
903.5955 63.03458
904.0776 66.55873
904.5598 70.07623
905.0419 73.55857
905.5240 76.89980
906.0062 80.09979
906.4883 83.08320
906.9704 85.63373
907.4525 87.95309
907.9346 90.40445
908.4167 94.08369
908.8989 96.36440
909.3810 96.69506
909.8631 96.04411
910.3452 95.67320
910.8273 95.52090
911.3094 94.67435
911.7916 93.01566
912.2737 90.71768
912.7558 87.89735
913.2379 84.54785
913.7200 80.60504
914.2021 75.99331
914.6843 71.16077
915.1664 66.26863
915.6485 61.05285
916.1306 55.15355
916.6127 48.65643
917.0948 43.05392
917.5770 38.32599
918.0591 34.10204
918.5412 30.10821
919.0233 26.45908
919.5054 23.29295
919.9875 20.59954
920.4697 18.20807
920.9518 15.88741
921.4339 14.15976
921.9160 13.35892
922.3981 13.06872
922.8802 12.19573
923.3624 10.76489
923.8445 9.372227
924.3266 8.123409
924.8087 7.132576
925.2908 6.698570
925.7729 6.527889
926.2551 6.167767
926.7372 5.262020
927.2193 4.582073
927.7014 4.341778
928.1835 4.210007
928.6656 3.890644
929.1478 3.379810
929.6299 2.820614
930.1120 2.226963
930.5941 1.635181
931.0762 0.9869690
931.5583 0.4118920
932.0405 0.1065560
932.5226 8.5262001E-02
933.0047 2.7081000E-02
933.4868 0.2430310
933.9689 0.6591110
934.4510 1.405037
934.9332 2.371140
935.4153 2.966274
935.8974 3.213871
936.3795 3.406170
936.8616 3.706760
937.3438 3.954990
937.8259 3.981350
938.3080 3.875252
938.7901 3.787861
939.2722 3.714729
939.7543 3.622890
940.2365 3.512970
940.7186 3.452187
941.2007 3.645287
941.6828 4.037479
942.1649 3.921440
942.6470 3.157108
943.1292 2.222801
943.6113 1.375107
944.0934 0.6886830
944.5755 0.2811510
945.0576 0.2481770
945.5397 2.1660000E-02
946.0219 0.5069500
946.5040 1.118835
946.9861 1.714607
947.4682 2.304329
947.9503 2.853508
948.4324 3.379318
948.9146 4.009399
949.3967 4.875412
949.8788 5.820641
950.3609 6.769287
950.8430 7.709381
951.3251 8.578651
951.8073 9.265160
952.2894 10.11737
952.7715 11.23528
953.2536 12.46320
953.7357 13.47968
954.2179 14.37181
954.7000 15.49848
955.1821 16.93732
955.6642 18.54683
956.1464 20.42218
956.6285 22.29095
957.1106 23.86971
957.5927 25.02048
958.0748 26.47918
958.5569 28.34476
959.0391 30.26884
959.5212 31.84368
960.0033 33.32979
960.4854 35.61907
960.9675 38.59689
961.4496 41.53661
961.9318 43.78538
962.4139 46.21677
962.8960 49.36871
963.3781 53.00780
963.8602 56.48044
964.3423 59.62209
964.8245 63.20593
965.3066 67.48200
965.7887 72.04600
966.2708 76.10346
966.7529 80.11098
967.2350 84.92368
967.7172 90.98842
968.1993 97.11327
968.6814 102.4484
969.1635 108.1005
969.6456 114.8706
970.1277 122.7732
970.6099 131.2389
971.0920 140.2103
971.5741 150.0190
972.0562 160.1901
972.5383 171.6198
973.0204 185.2832
973.5026 201.2666
973.9847 219.9511
974.4668 240.0477
974.9489 264.6844
975.4310 293.6233
975.9131 328.1644
976.3953 369.7259
976.8774 418.9232
977.3595 480.3141
977.8416 554.6967
978.3237 639.5414
978.8058 739.0383
979.2880 844.9447
979.7701 949.7728
980.2522 1053.925
980.7343 1149.928
981.2164 1236.968
981.6985 1319.169
982.1807 1398.149
982.6628 1475.270
983.1449 1555.040
983.6270 1638.013
984.1091 1727.698
984.5912 1822.369
985.0734 1928.110
985.5555 2048.452
986.0376 2183.967
986.5197 2333.298
987.0018 2497.429
987.4839 2672.615
987.9661 2860.095
988.4482 3053.986
988.9303 3257.287
989.4124 3456.023
989.8945 3636.913
990.3766 3809.025
990.8588 3883.900
991.3409 3834.167
991.8230 3659.106
992.3051 3339.517
992.7872 2886.447
993.2693 2442.583
993.7515 2006.467
994.2336 1619.824
994.7157 1305.843
995.1978 1053.269
995.6799 855.4076
996.1620 703.7691
996.6442 580.8581
997.1263 493.6940
997.6084 421.0421
998.0905 362.6282
998.5726 315.3349
999.0547 275.7270
999.5369 243.1694
1000.019 215.0806
1000.501 191.2491
1000.983 170.5571
1001.465 152.5438
1001.947 136.7311
1002.430 123.2547
1002.912 112.0182
1003.394 101.6598
1003.876 91.99608
1004.358 83.47579
1004.840 76.20033
1005.322 69.98541
1005.804 64.53063
1006.287 59.73149
1006.769 55.17187
1007.251 50.49656
1007.733 46.43658
1008.215 43.37241
1008.697 40.85706
1009.179 38.53472
1009.661 36.43246
1010.143 34.25762
1010.626 31.94919
1011.108 29.95184
1011.590 28.74670
1012.072 27.90418
1012.554 26.94862
1013.036 25.90902
1013.518 25.18195
1014.000 24.98288
1014.483 24.82143
1014.965 24.58578
1015.447 24.33189
1015.929 24.04498
1016.411 23.81929
1016.893 24.05186
1017.375 24.95244
1017.857 25.93414
1018.339 26.56893
1018.822 27.17342
1019.304 27.96410
1019.786 28.88971
1020.268 30.48157
1020.750 32.84502
1021.232 35.36610
1021.714 37.57191
1022.196 39.74498
1022.679 42.17962
1023.161 44.92046
1023.643 48.08560
1024.125 51.63996
1024.607 55.72572
1025.089 60.24097
1025.571 65.37463
1026.053 71.50523
1026.535 78.47967
1027.018 85.76488
1027.500 93.26242
1027.982 101.5728
1028.464 110.9046
1028.946 121.4681
1029.428 133.3362
1029.910 146.6737
1030.392 161.1431
1030.875 176.7581
1031.357 193.7982
1031.839 212.3154
1032.321 232.7009
1032.803 255.3429
1033.285 280.2650
1033.767 307.0894
1034.249 335.7514
1034.731 366.1553
1035.214 398.6104
1035.696 432.5000
1036.178 468.0436
1036.660 504.9409
1037.142 543.0680
1037.624 581.8198
1038.106 620.5396
1038.588 658.6689
1039.071 696.4084
1039.553 734.2893
1040.035 772.2339
1040.517 810.4417
1040.999 849.8260
1041.481 888.1616
1041.963 925.8396
1042.445 962.0541
1042.927 997.3270
1043.410 1030.479
1043.892 1059.458
1044.374 1084.254
1044.856 1105.197
1045.338 1126.058
1045.820 1139.105
1046.302 1141.496
1046.784 1133.276
1047.266 1114.914
1047.749 1086.215
1048.231 1046.456
1048.713 994.4178
1049.195 933.9613
1049.677 863.1547
1050.159 787.4963
1050.641 713.7725
1051.123 641.0965
1051.606 573.9094
1052.088 511.9807
1052.570 456.0302
1053.052 405.5679
1053.534 360.5679
1054.016 321.0085
1054.498 286.5955
1054.980 256.0647
1055.463 229.9404
1055.945 206.5225
1056.427 185.5279
1056.909 166.8430
1057.391 150.6581
1057.873 136.8532
1058.355 124.6182
1058.837 113.8882
1059.319 103.9865
1059.802 94.58842
1060.284 85.93549
1060.766 78.19247
1061.248 71.37654
1061.730 66.30280
1062.212 63.42837
1062.694 59.78033
1063.176 53.75519
1063.658 47.38191
1064.141 44.01837
1064.623 42.20367
1065.105 39.35370
1065.587 33.90369
1066.069 29.51257
1066.551 26.79030
1067.033 24.71827
1067.515 22.63431
1067.998 20.56517
1068.480 18.84886
1068.962 17.41428
1069.444 15.90133
1069.926 13.83693
1070.408 11.96727
1070.890 10.85481
1071.372 10.10516
1071.854 9.118008
1072.337 7.855133
1072.819 6.884315
1073.301 6.301971
1073.783 5.731728
1074.265 4.734734
1074.747 3.652985
1075.229 2.829323
1075.711 2.280487
1076.193 1.774734
1076.676 1.321720
1077.158 0.8480030
1077.640 0.3273090
1078.122 0.2008630
1078.604 0.6825410
1079.086 1.116814
1079.568 1.499683
1080.051 1.836975
1080.533 2.120613
1081.015 2.364670
1081.497 2.527603
1081.979 2.525269
1082.461 2.411064
1082.943 2.604790
1083.425 3.063267
1083.907 3.440090
1084.390 3.547249
1084.872 3.561573
1085.354 3.581959
1085.836 3.576965
1086.318 3.503296
1086.800 3.326805
1087.282 3.240849
1087.764 3.262268
1088.246 3.265987
1088.729 3.132591
1089.211 2.942635
1089.693 2.859051
1090.175 2.813850
1090.657 2.513783
1091.139 1.614426
1091.621 1.035030
1092.103 0.9736670
1092.586 1.105423
1093.068 1.084068
1093.550 0.8976750
1094.032 0.4235460
1094.514 0.3520550
1094.996 0.9356230
1095.478 0.8526080
1095.960 0.8212390
1096.443 1.080616
1096.925 1.599991
1097.407 2.384377
1097.889 3.389732
1098.371 4.270298
1098.853 4.928730
1099.335 5.481369
1099.817 5.801697
1100.299 6.212276
1100.781 7.075993
1101.264 8.412991
1101.746 9.414967
1102.228 10.05198
1102.710 10.80696
1103.192 11.95024
1103.674 13.27869
1104.156 14.55147
1104.638 15.83469
1105.121 17.26305
1105.603 18.98276
1106.085 20.54829
1106.567 21.89145
1107.049 23.28738
1107.531 24.99524
1108.013 26.90452
1108.495 28.93191
1108.978 31.02839
1109.460 33.03876
1109.942 34.82524
1110.424 36.64857
1110.906 38.54885
1111.388 40.53345
1111.870 42.65205
1112.352 44.87298
1112.834 47.06954
1113.317 49.24500
1113.799 51.37290
1114.281 53.33995
1114.763 55.37692
1115.245 57.66022
1115.727 60.03543
1116.209 62.11331
1116.691 63.91031
1117.173 65.35757
1117.656 66.36235
1118.138 67.47536
1118.620 69.39835
1119.102 71.46424
1119.584 72.97728
1120.066 73.94517
1120.548 75.42025
1121.030 77.47710
1121.513 79.49570
1121.995 81.16348
1122.477 82.85992
1122.959 84.96754
1123.441 87.49025
1123.923 90.43649
1124.405 93.82135
1124.887 97.70657
1125.370 102.1390
1125.852 106.9238
1126.334 112.0054
1126.816 117.3388
1127.298 122.9158
1127.780 128.6920
1128.262 134.5107
1128.744 140.3556
1129.226 146.1816
1129.709 151.9842
1130.191 157.7732
1130.673 163.5115
1131.155 169.2758
1131.637 175.7263
1132.119 182.7466
1132.601 189.6108
1133.083 195.7842
1133.566 201.9973
1134.048 209.0074
1134.530 215.7524
1135.012 220.8571
1135.494 224.3215
1135.976 226.6935
1136.458 228.0077
1136.940 227.4568
1137.422 224.6888
1137.905 219.7264
1138.387 212.0615
1138.869 202.2205
1139.351 191.0916
1139.833 178.5448
1140.315 165.9544
1140.797 153.4967
1141.279 141.3141
1141.761 128.8701
1142.244 117.1905
1142.726 107.0383
1143.208 98.52680
1143.690 90.90967
1144.172 84.22392
1144.654 78.63503
1145.136 74.37238
1145.618 71.00085
1146.101 68.05870
1146.583 65.78430
1147.065 64.42294
1147.547 64.08707
1148.029 64.66375
1148.511 66.15757
1148.993 68.60397
1149.475 72.02302
1149.958 76.26389
1150.440 81.23167
1150.922 86.89930
1151.404 93.25541
1151.886 100.4177
1152.368 108.1586
1152.850 116.5745
1153.332 125.1449
1153.814 133.6536
1154.297 142.1252
1154.779 150.2234
1155.261 158.1933
1155.743 166.2567
1156.225 174.5328
1156.707 183.0198
1157.189 191.7055
1157.671 200.7102
1158.153 210.1950
1158.636 220.1221
1159.118 230.0424
1159.600 239.8708
1160.082 249.4178
1160.564 259.0004
1161.046 267.7988
1161.528 276.7996
1162.010 283.7638
1162.493 286.0454
1162.975 283.8329
1163.457 278.7866
1163.939 270.9905
1164.421 260.1267
1164.903 244.2555
1165.385 227.0523
1165.867 209.4237
1166.349 192.0952
1166.832 176.4194
1167.314 162.2805
1167.796 149.8252
1168.278 139.0012
1168.760 129.9296
1169.242 123.0506
1169.724 117.6140
1170.206 113.3324
1170.688 110.0432
1171.171 107.4154
1171.653 105.4447
1172.135 105.0205
1172.617 106.4308
1173.099 108.3933
1173.581 109.9467
1174.063 111.5496
1174.545 113.7525
1175.028 116.3596
1175.510 118.6366
1175.992 120.6614
1176.474 120.9103
1176.956 118.9960
1177.438 115.2343
1177.920 109.5861
1178.402 102.4757
1178.885 93.78307
1179.367 83.67686
1179.849 74.09036
1180.331 64.92750
1180.813 56.48035
1181.295 48.76506
1181.777 41.97898
1182.259 36.47414
1182.741 31.93208
1183.224 28.07314
1183.706 24.91739
1184.188 22.03083
1184.670 19.36467
1185.152 17.01215
1185.634 15.09779
1186.116 13.39447
1186.598 11.59279
1187.081 9.900681
1187.563 8.723194
1188.045 8.095085
1188.527 7.380375
1189.009 6.578138
1189.491 5.869602
1189.973 5.242157
1190.455 4.697178
1190.938 4.197952
1191.420 3.688877
1191.902 3.253403
1192.384 2.789722
1192.866 2.321720
1193.348 1.804476
1193.830 1.478937
1194.312 1.674692
1194.794 1.992931
1195.276 1.834284
1195.759 1.382215
1196.241 1.057587
1196.723 0.9751220
1197.205 0.9008410
1197.687 0.8200280
1198.169 0.7967410
1198.651 1.044878
1199.133 1.262379
1199.616 0.8526290
1200.098 0.1033130
1200.580 0.2295020
1201.062 0.2086510
1201.544 0.4832780
1202.026 0.5323350
1202.508 0.5094570
1202.990 0.5575580
1203.473 0.6044450
1203.955 0.5213700
1204.437 0.3631820
1204.919 0.2653540
1205.401 0.2763540
1205.883 0.3157350
1206.365 0.3957600
1206.847 0.4499380
1207.329 0.4112820
1207.812 0.3330990
1208.294 0.2679180
1208.776 0.2263490
1209.258 0.2001900
1209.740 0.2332460
1210.222 0.1594470
1210.704 6.9502003E-02
1211.186 0.2871380
1211.668 1.283276
1212.151 0.4011150
1212.633 0.1124880
1213.115 0.2770440
1213.597 0.9572930
1214.079 0.3860050
1214.561 0.5365010
1215.043 0.7226810
1215.525 9.7723000E-02
1216.008 0.9394760
1216.490 0.1334360
1216.972 6.5102004E-02
1217.454 0.3394030
1217.936 1.5331000E-02
1218.418 8.6209998E-02
1218.900 0.5429190
1219.382 0.7658250
1219.865 0.4792460
1220.347 0.3732070
1220.829 0.1080060
1221.311 0.1375220
1221.793 0.4327470
1222.275 0.4424460
1222.757 4.9856000E-02
1223.239 0.2036950
1223.721 0.1892280
1224.203 0.1311090
1224.686 0.3670920
1225.168 0.6192700
1225.650 0.5138950
1226.132 8.0853000E-02
1226.614 4.1758001E-02
1227.096 0.2146320
1227.578 0.4441430
1228.061 0.5705320
1228.543 0.5979790
1229.025 0.4192870
1229.507 0.2289280
1229.989 0.2609020
1230.471 0.4926850
1230.953 0.5675560
1231.435 0.4620570
1231.917 0.4270210
1232.400 0.5444820
1232.882 0.6192160
1233.364 0.4001820
1233.846 0.1031520
1234.328 0.1229240
1234.810 0.2564050
1235.292 0.1740730
1235.774 0.1379970
1236.256 0.3460210
1236.739 0.3635380
1237.221 0.2918400
1237.703 0.1571830
1238.185 2.0060999E-02
1238.667 7.3581003E-02
1239.149 0.1250180
1239.631 0.1045020
1240.113 1.7425001E-02
1240.596 7.0054002E-02
1241.078 0.3448070
1241.560 0.5711830
1242.042 0.5485860
1242.524 0.3964520
1243.006 0.1187690
1243.488 0.2112950
1243.970 0.2586090
1244.453 7.3043004E-02
1244.935 0.8595620
1245.417 1.2581000E-02
1245.899 0.5147020
1246.381 0.6664040
1246.863 0.5811600
1247.345 2.2492001E-02
1247.827 0.1876750
1248.309 0.3824010
1248.792 0.4305170
1249.274 0.6136610
1249.756 0.1836960
1250.238 0.2462270
1250.720 0.6453430
1251.202 0.3161340
1251.684 0.2067300
1252.166 6.4699998E-04
1252.648 5.8704998E-02
1253.131 0.4594420
1253.613 0.7590420
1254.095 0.8497310
1254.577 0.9359860
1255.059 1.126874
1255.541 1.253492
1256.023 1.234613
1256.505 1.141110
1256.988 1.015523
1257.470 1.021420
1257.952 1.035511
1258.434 1.129029
1258.916 1.147304
1259.398 0.9797060
1259.880 0.9575920
1260.362 1.114216
1260.844 1.335464
1261.327 1.264904
1261.809 0.4731310
1262.291 1.319956
1262.773 1.859894
1263.255 2.053494
1263.737 0.8516940
1264.219 1.452697
1264.701 1.322264
1265.183 1.171758
1265.666 2.028666
1266.148 1.023846
1266.630 1.864068
1267.112 1.967644
1267.594 2.409072
1268.076 2.115061
1268.558 1.986653
1269.040 2.613459
1269.523 2.868969
1270.005 1.905044
1270.487 1.580228
1270.969 1.436632
1271.451 1.510046
1271.933 0.9932190
1272.415 1.772757
1272.897 2.295156
1273.380 2.488508
1273.862 1.136884
1274.344 1.752806
1274.826 1.490351
1275.308 1.188386
1275.790 1.910573
1276.272 0.8594090
1276.754 1.670427
1277.236 1.674961
1277.719 2.032100
1278.201 1.717628
1278.683 1.631201
1279.165 2.275105
1279.647 2.506272
1280.129 2.100741
1280.611 2.533888
1281.093 1.469957
1281.576 1.717075
1282.058 2.500594
1282.540 2.138484
1283.022 1.517449
1283.504 1.324563
1283.986 1.463620
1284.468 1.672467
1284.950 1.540181
1285.432 1.243394
1285.915 1.095797
1286.397 1.110882
1286.879 1.222247
1287.361 1.522231
1287.843 1.597397
1288.325 1.259861
1288.807 0.8569090
1289.289 0.7768100
1289.771 0.8308200
1290.254 0.7826400
1290.736 0.6499240
1291.218 0.6899020
1291.700 0.9315700
1292.182 1.058899
1292.664 1.012036
1293.146 0.9150420
1293.628 0.9033790
1294.111 0.8497290
1294.593 0.5602940
1295.075 0.2071870
1295.557 0.2036550
1296.039 0.5066910
1296.521 0.6316020
1297.003 0.5283760
1297.485 0.4205270
1297.968 0.5034160
1298.450 0.5143640
1298.932 0.2153330
1299.414 3.4947999E-02
1299.896 0.2312710
1300.378 0.8193570
1300.860 0.7817470
1301.342 0.4907790
1301.824 0.0000000E+00
