#Shining_header
#Data type:raman_database
#CAS:Not entered
#Material scientific name:Inderite
#Manufacturer:Not entered
#Laser model:Not entered
#Spectrometer model:Not entered
#Testing unit:Not entered
#Test time:Not entered
#Other experimental details:Not entered
#Shining_data

134.9100 0.0000000E+00
135.3921 1.880096
135.8742 0.3641660
136.3563 0.1195070
136.8384 1.746582
137.3205 4.049957
137.8027 6.643005
138.2848 9.792786
138.7669 14.12579
139.2490 19.20526
139.7311 23.38724
140.2132 25.78726
140.6954 27.36746
141.1775 29.42746
141.6596 32.10587
142.1417 34.30319
142.6238 34.67520
143.1059 32.89404
143.5881 31.41174
144.0702 30.68375
144.5523 30.64609
145.0344 31.32132
145.5165 32.70822
145.9986 34.77200
146.4807 37.44391
146.9629 40.64908
147.4450 44.71567
147.9271 50.92776
148.4092 57.36487
148.8913 62.22809
149.3734 64.66898
149.8556 64.95673
150.3377 64.16174
150.8198 61.33710
151.3019 58.29263
151.7840 54.58469
152.2661 50.92960
152.7483 48.36526
153.2304 47.52014
153.7125 48.24707
154.1946 49.19098
154.6767 49.83612
155.1588 51.01859
155.6410 53.13281
156.1231 56.09235
156.6052 59.55487
157.0873 63.30545
157.5694 67.38852
158.0515 71.74048
158.5337 75.39700
159.0158 79.94318
159.4979 86.78885
159.9800 96.05643
160.4621 106.5211
160.9442 117.5150
161.4264 129.0143
161.9085 140.8715
162.3906 153.1109
162.8727 165.6684
163.3548 178.5746
163.8369 191.8441
164.3191 205.4748
164.8012 220.1325
165.2833 235.2335
165.7654 249.0979
166.2475 261.3845
166.7296 271.8323
167.2118 279.6924
167.6939 285.4544
168.1760 287.5099
168.6581 285.8525
169.1402 281.2783
169.6223 273.2253
170.1045 260.9191
170.5866 244.0493
171.0687 226.6016
171.5508 207.7178
172.0329 189.5603
172.5150 172.4169
172.9972 156.5806
173.4793 142.0711
173.9614 128.7639
174.4435 116.8328
174.9256 105.9591
175.4077 95.85703
175.8899 86.81403
176.3720 79.14520
176.8541 72.89641
177.3362 67.77493
177.8183 63.43636
178.3004 59.96344
178.7826 57.23895
179.2647 54.91745
179.7468 53.43604
180.2289 53.43784
180.7110 55.03996
181.1931 57.37428
181.6752 59.18332
182.1574 60.39496
182.6395 61.26366
183.1216 61.77562
183.6037 62.01718
184.0858 62.20239
184.5679 62.49478
185.0501 62.40596
185.5322 60.82031
186.0143 57.67908
186.4964 54.54993
186.9785 51.87459
187.4606 49.61786
187.9428 47.66043
188.4249 45.98111
188.9070 44.61360
189.3891 43.65686
189.8712 43.14429
190.3533 42.52115
190.8355 41.33752
191.3176 39.66153
191.7997 38.14857
192.2818 37.09949
192.7639 36.56912
193.2460 35.91919
193.7282 35.14909
194.2103 33.95605
194.6924 31.81227
195.1745 28.56720
195.6566 25.55493
196.1387 22.83379
196.6209 20.59280
197.1030 19.19157
197.5851 18.62752
198.0672 18.29599
198.5493 17.44646
199.0314 15.97107
199.5136 14.30058
199.9957 12.52705
200.4778 10.56444
200.9599 8.303741
201.4420 5.727264
201.9241 2.979523
202.4063 0.1617580
202.8884 3.259369
203.3705 5.642868
203.8526 6.487457
204.3347 6.752075
204.8168 7.239944
205.2990 8.162384
205.7811 9.103180
206.2632 9.240982
206.7453 7.649948
207.2274 6.533859
207.7095 6.206879
208.1917 6.161423
208.6738 5.940338
209.1559 5.391800
209.6380 4.666809
210.1201 4.056854
210.6022 3.739716
211.0844 3.264297
211.5665 2.758377
212.0486 2.035461
212.5307 0.8098300
213.0128 1.034195
213.4949 3.242569
213.9771 5.339935
214.4592 7.339966
214.9413 9.197098
215.4234 10.86562
215.9055 12.40051
216.3876 13.97470
216.8698 15.71709
217.3519 17.30640
217.8340 17.95224
218.3161 17.46152
218.7982 17.15178
219.2803 17.36098
219.7625 18.05957
220.2446 19.32376
220.7267 21.43100
221.2088 23.66364
221.6909 24.84535
222.1730 24.86533
222.6552 24.98598
223.1373 25.91167
223.6194 27.45546
224.1015 28.95651
224.5836 30.21014
225.0657 31.40990
225.5479 32.77501
226.0300 34.30821
226.5121 35.85692
226.9942 37.28781
227.4763 38.62132
227.9584 40.09358
228.4406 41.95506
228.9227 43.74615
229.4048 45.25562
229.8869 46.46036
230.3690 47.13702
230.8511 46.86554
231.3333 45.67586
231.8154 44.75844
232.2975 44.49370
232.7796 44.35397
233.2617 43.98331
233.7438 43.40620
234.2260 42.89404
234.7081 42.58318
235.1902 42.45195
235.6723 42.85168
236.1544 44.44441
236.6365 46.07248
237.1187 47.16980
237.6008 47.78346
238.0829 48.30608
238.5650 49.12602
239.0471 50.29694
239.5292 51.35886
240.0114 52.21887
240.4935 53.04071
240.9756 53.89980
241.4577 54.78551
241.9398 55.61821
242.4219 56.25616
242.9041 56.60916
243.3862 57.44856
243.8683 59.15691
244.3504 61.00226
244.8325 62.93103
245.3146 64.79420
245.7968 66.33804
246.2789 67.31412
246.7610 67.69276
247.2431 67.78583
247.7252 67.41583
248.2073 66.95712
248.6895 66.58125
249.1716 66.23860
249.6537 65.75716
250.1358 64.96385
250.6179 63.81915
251.1000 62.95374
251.5822 62.71918
252.0643 62.36411
252.5464 61.61340
253.0285 60.49706
253.5106 59.14363
253.9927 57.59598
254.4748 55.86197
254.9570 54.52937
255.4391 54.21915
255.9212 53.60880
256.4033 51.91385
256.8854 49.50145
257.3676 47.29910
257.8497 45.94699
258.3318 45.36093
258.8139 44.54453
259.2960 43.65614
259.7781 42.39043
260.2603 40.41840
260.7424 37.82811
261.2245 35.07410
261.7066 32.43057
262.1887 29.98787
262.6708 28.08440
263.1530 27.04843
263.6351 25.97314
264.1172 24.77472
264.5993 23.49023
265.0814 21.82632
265.5635 19.47481
266.0457 16.79073
266.5278 15.07648
267.0099 14.87093
267.4920 14.59515
267.9741 13.59390
268.4562 12.15443
268.9384 10.86456
269.4204 9.923050
269.9026 9.335693
270.3847 9.168823
270.8668 9.459503
271.3489 10.00006
271.8310 11.02147
272.3131 12.17708
272.7953 12.73575
273.2774 12.35526
273.7595 11.60252
274.2416 11.43983
274.7237 11.90430
275.2058 12.34923
275.6880 12.31645
276.1701 12.17442
276.6522 12.73163
277.1343 14.35428
277.6164 16.16856
278.0985 17.05139
278.5807 17.11369
279.0628 17.16141
279.5449 17.35959
280.0270 17.60532
280.5091 17.75354
280.9912 17.77623
281.4734 17.80573
281.9555 18.10692
282.4376 18.58397
282.9197 18.75473
283.4018 18.10167
283.8839 17.24330
284.3661 17.07953
284.8482 17.74585
285.3303 18.58299
285.8124 19.07356
286.2945 19.35117
286.7766 19.73512
287.2588 20.26945
287.7409 20.94914
288.2230 21.87515
288.7051 23.07864
289.1872 24.07571
289.6693 24.24284
290.1515 24.10896
290.6336 24.60767
291.1157 26.03381
291.5978 27.94603
292.0799 30.09366
292.5620 32.48680
293.0442 34.64505
293.5263 36.19621
294.0084 37.51283
294.4905 39.04858
294.9726 40.84576
295.4547 42.89694
295.9369 45.40944
296.4190 48.28946
296.9011 50.60527
297.3832 51.69574
297.8653 52.46822
298.3474 54.12079
298.8296 56.73186
299.3117 58.96826
299.7938 59.89421
300.2759 59.72992
300.7580 59.38147
301.2401 59.02972
301.7223 58.59402
302.2044 58.07878
302.6865 57.42029
303.1686 56.41739
303.6507 54.69339
304.1328 52.55969
304.6150 51.05385
305.0971 50.51434
305.5792 50.19559
306.0613 49.36270
306.5434 48.25851
307.0255 47.58517
307.5077 47.62115
307.9898 48.29254
308.4719 49.63412
308.9540 51.91119
309.4361 54.03624
309.9182 55.00813
310.4004 55.42999
310.8825 56.23685
311.3646 57.93979
311.8467 59.93362
312.3288 61.26497
312.8109 61.81900
313.2931 62.52512
313.7752 64.49838
314.2573 66.53296
314.7394 67.14685
315.2215 65.84682
315.7036 63.71307
316.1858 61.70720
316.6679 59.83075
317.1500 57.81961
317.6321 55.63286
318.1142 53.21454
318.5963 50.35117
319.0785 46.97424
319.5606 43.91563
320.0427 42.11447
320.5248 41.30289
321.0069 39.74170
321.4890 36.34209
321.9712 33.21500
322.4533 32.39558
322.9354 33.57004
323.4175 34.84795
323.8996 35.51364
324.3817 35.56323
324.8639 34.71622
325.3460 32.43616
325.8281 30.51117
326.3102 30.91982
326.7923 32.68192
327.2744 33.67081
327.7566 32.81267
328.2387 30.94284
328.7208 29.33336
329.2029 28.08592
329.6850 26.53284
330.1671 24.02518
330.6493 21.04492
331.1314 18.29172
331.6135 16.03743
332.0956 13.80286
332.5777 10.90259
333.0598 7.383392
333.5420 4.439133
334.0241 2.881897
334.5062 1.881287
334.9883 3.2515999E-02
335.4704 2.988876
335.9525 5.328049
336.4347 5.373093
336.9168 3.653229
337.3989 2.186981
337.8810 1.447327
338.3631 1.034622
338.8452 0.5451660
339.3274 1.0849000E-02
339.8094 0.5930790
340.2916 1.089813
340.7737 1.624496
341.2558 2.463409
341.7379 3.686417
342.2200 4.996338
342.7021 6.298157
343.1843 7.513962
343.6664 8.341644
344.1485 8.414108
344.6306 8.278610
345.1127 8.634598
345.5948 9.464767
346.0770 9.911835
346.5591 9.362350
347.0412 8.110458
347.5233 7.099487
348.0054 6.506439
348.4875 5.870453
348.9697 4.879211
349.4518 3.614853
349.9339 2.315521
350.4160 0.9902190
350.8981 0.2050480
351.3802 0.9241490
351.8624 1.077652
352.3445 1.360519
352.8266 2.278305
353.3087 3.370468
353.7908 3.775208
354.2729 3.254501
354.7551 2.695984
355.2372 3.337509
355.7193 5.217178
356.2014 5.922531
356.6835 4.128159
357.1656 1.862259
357.6478 0.6641540
358.1299 0.5997770
358.6120 1.218033
359.0941 2.500626
359.5762 4.189789
360.0583 4.687378
360.5405 3.210876
361.0226 1.524933
361.5047 0.1816250
361.9868 0.8305510
362.4689 1.520874
362.9510 1.847244
363.4332 1.981888
363.9153 2.323517
364.3974 2.939148
364.8795 3.612686
365.3616 4.501862
365.8438 5.347183
366.3259 5.634201
366.8080 5.304474
367.2901 5.165146
367.7722 6.299057
368.2543 9.206787
368.7365 11.23575
369.2186 11.46686
369.7007 11.67815
370.1828 13.02379
370.6649 15.34433
371.1470 17.78897
371.6292 19.75983
372.1113 21.28590
372.5934 22.69777
373.0755 23.82169
373.5576 25.03781
374.0397 26.53603
374.5219 28.13976
375.0040 29.59045
375.4861 30.78551
375.9682 31.79051
376.4503 32.73380
376.9324 33.30769
377.4146 34.34857
377.8967 36.19193
378.3788 38.21928
378.8609 40.09163
379.3430 41.70174
379.8251 43.03522
380.3073 43.21527
380.7894 44.71666
381.2715 45.47386
381.7536 45.52724
382.2357 42.76187
382.7178 43.64105
383.2000 43.06248
383.6821 42.42621
384.1642 43.82417
384.6463 41.47948
385.1284 42.84933
385.6105 42.73935
386.0927 43.30960
386.5748 42.41319
387.0569 41.97244
387.5390 41.76530
388.0211 42.28149
388.5032 42.71762
388.9854 42.61125
389.4675 41.78442
389.9496 41.40985
390.4317 42.13849
390.9138 42.92755
391.3959 41.79752
391.8781 43.16026
392.3602 43.77032
392.8423 43.65189
393.3244 40.33943
393.8065 41.03227
394.2886 40.17764
394.7708 39.41942
395.2529 41.06525
395.7350 38.66135
396.2171 40.47736
396.6992 40.74425
397.1813 41.86430
397.6635 41.44749
398.1456 41.61174
398.6277 43.48421
399.1098 44.52905
399.5919 44.22975
400.0740 45.87401
400.5562 44.25800
401.0383 45.64563
401.5204 48.37250
402.0025 48.53674
402.4846 50.59740
402.9667 50.29961
403.4489 52.23552
403.9310 55.25711
404.4131 59.01532
404.8952 62.22186
405.3773 63.95424
405.8594 65.56766
406.3416 68.32031
406.8237 72.09570
407.3058 75.97328
407.7879 79.48866
408.2700 82.78949
408.7521 86.18219
409.2343 89.33527
409.7164 93.19037
410.1985 98.62689
410.6806 104.6980
411.1627 109.8996
411.6448 113.9130
412.1269 117.6873
412.6090 122.2505
413.0912 127.7008
413.5733 133.1969
414.0554 138.4653
414.5375 144.2431
415.0196 151.1626
415.5017 158.9238
415.9839 166.7752
416.4660 174.2746
416.9481 181.4096
417.4302 188.2369
417.9123 195.1472
418.3944 201.4548
418.8766 206.8103
419.3587 211.6572
419.8408 216.6173
420.3229 221.7554
420.8050 226.4235
421.2871 229.7520
421.7693 231.6324
422.2514 232.5153
422.7335 232.4388
423.2156 231.4115
423.6977 229.5561
424.1798 226.7324
424.6620 222.5772
425.1441 216.7319
425.6262 209.5516
426.1083 202.3436
426.5904 194.9960
427.0725 187.7951
427.5547 180.5410
428.0368 173.5929
428.5189 167.3782
429.0010 161.9742
429.4831 156.9789
429.9652 151.7693
430.4474 146.3354
430.9295 142.1761
431.4116 140.1347
431.8937 138.5216
432.3758 136.0067
432.8579 132.9886
433.3401 130.6156
433.8222 129.5782
434.3043 129.3450
434.7864 128.9780
435.2685 128.4075
435.7506 128.4043
436.2328 129.2288
436.7149 130.9495
437.1970 133.7087
437.6791 137.8969
438.1612 141.7917
438.6433 144.0698
439.1255 145.4701
439.6076 147.8232
440.0897 151.6761
440.5718 155.3526
441.0539 157.2863
441.5360 157.3791
442.0182 156.1096
442.5003 153.6372
442.9824 149.6793
443.4645 143.7657
443.9466 136.1736
444.4287 127.6900
444.9109 118.5671
445.3930 109.0943
445.8751 99.83502
446.3572 90.73645
446.8393 82.04164
447.3214 73.41470
447.8036 65.39105
448.2857 58.47835
448.7678 52.70972
449.2499 47.57594
449.7320 42.59349
450.2141 37.73439
450.6963 33.61127
451.1784 30.84258
451.6605 28.12279
452.1426 25.13586
452.6247 22.02615
453.1068 18.95337
453.5890 15.98712
454.0711 13.26949
454.5532 11.18958
455.0353 9.950363
455.5174 8.612320
455.9995 6.697617
456.4817 4.967148
456.9638 3.990158
457.4459 3.624069
457.9280 3.232147
458.4101 2.299515
458.8922 1.030716
459.3744 2.8763000E-02
459.8565 0.7404170
460.3386 1.130661
460.8207 0.7945250
461.3028 0.1473240
461.7849 0.2819370
462.2671 0.3129270
462.7492 0.5444950
463.2313 1.634171
463.7134 3.267471
464.1955 4.502487
464.6776 5.165482
465.1598 5.612946
465.6419 5.884903
466.1240 6.009888
466.6061 6.800598
467.0882 8.805649
467.5703 11.22516
468.0525 13.42174
468.5346 15.48540
469.0167 17.89680
469.4988 20.90923
469.9809 24.24202
470.4630 27.29393
470.9452 29.65698
471.4273 32.62044
471.9094 36.45265
472.3915 40.77661
472.8736 45.36380
473.3557 50.09964
473.8379 54.84891
474.3200 59.49634
474.8021 64.08148
475.2842 68.81963
475.7663 73.74420
476.2484 78.71230
476.7306 83.53174
477.2127 88.55988
477.6948 94.26230
478.1769 100.6967
478.6590 107.2760
479.1411 113.0968
479.6233 118.0760
480.1054 123.5549
480.5875 129.5239
481.0696 136.1625
481.5517 143.5131
482.0338 151.4867
482.5159 160.0220
482.9980 169.1318
483.4802 178.7071
483.9623 188.4362
484.4444 198.3204
484.9265 208.8776
485.4086 220.2563
485.8907 232.5892
486.3729 246.1025
486.8550 260.8192
487.3371 275.8074
487.8192 290.9755
488.3013 306.1380
488.7834 321.1074
489.2656 335.9291
489.7477 351.0574
490.2298 367.1593
490.7119 383.7618
491.1940 397.9599
491.6761 411.1898
492.1583 420.8027
492.6404 426.6291
493.1225 428.4801
493.6046 425.7408
494.0867 418.4985
494.5688 407.8390
495.0510 394.8117
495.5331 379.3839
496.0152 362.3976
496.4973 343.6157
496.9794 323.4942
497.4615 300.8265
497.9437 277.2983
498.4258 255.1160
498.9079 235.1013
499.3900 216.6893
499.8721 199.0371
500.3542 182.2001
500.8364 166.4217
501.3185 151.5285
501.8006 138.1470
502.2827 126.8155
502.7648 117.1647
503.2469 107.9768
503.7291 98.67258
504.2112 89.75540
504.6933 82.01317
505.1754 75.44279
505.6575 69.58136
506.1396 64.39413
506.6218 59.71111
507.1039 55.30537
507.5860 51.18826
508.0681 47.17630
508.5502 43.04211
509.0323 39.09949
509.5145 35.73286
509.9966 32.90640
510.4787 30.28621
510.9608 27.64871
511.4429 25.07492
511.9250 22.94788
512.4072 21.86089
512.8893 20.44185
513.3714 18.38676
513.8535 16.10948
514.3356 13.70424
514.8177 11.35939
515.2999 9.623657
515.7820 9.182404
516.2641 9.886917
516.7462 9.628296
517.2283 7.636398
517.7104 5.806915
518.1926 4.624496
518.6747 3.805542
519.1568 3.061859
519.6389 2.324127
520.1210 1.713333
520.6031 1.541168
521.0853 1.681366
521.5674 1.182831
522.0495 0.3478700
522.5316 1.756088
523.0137 1.956680
523.4958 1.515167
523.9780 1.537277
524.4601 2.491425
524.9422 3.464493
525.4243 3.969666
525.9064 4.038010
526.3885 3.569443
526.8707 2.486588
527.3528 1.427979
527.8349 1.130646
528.3170 1.693481
528.7991 2.277084
529.2813 3.189987
529.7634 3.795959
530.2455 3.614426
530.7276 2.999298
531.2097 2.564575
531.6918 2.547272
532.1740 2.676575
532.6561 2.442062
533.1382 1.591278
533.6203 1.245255
534.1024 2.113358
534.5845 2.806992
535.0667 2.648575
535.5488 1.962158
536.0309 1.405029
536.5130 1.268051
536.9951 1.410080
537.4772 1.754745
537.9594 2.314651
538.4415 2.506271
538.9236 2.089600
539.4057 1.413193
539.8878 0.6205140
540.3699 0.2158810
540.8521 0.6329650
541.3342 0.1241760
541.8163 0.8475040
542.2984 9.7000003E-02
542.7805 1.691376
543.2626 2.696869
543.7448 2.068939
544.2269 0.7455290
544.7090 0.3642120
545.1911 1.478073
545.6732 2.099548
546.1553 1.765259
546.6375 1.378769
547.1196 1.238998
547.6017 1.477432
548.0838 2.413361
548.5659 4.274673
549.0480 6.454819
549.5302 7.418213
550.0123 6.503189
550.4944 6.332733
550.9765 8.363647
551.4586 10.19215
551.9407 10.16975
552.4229 8.861725
552.9050 8.157516
553.3871 9.290909
553.8692 11.25740
554.3513 12.48042
554.8334 12.97726
555.3156 13.62724
555.7977 14.80116
556.2798 16.12830
556.7619 16.98509
557.2440 17.37036
557.7261 18.14485
558.2083 19.79892
558.6904 21.63268
559.1725 23.22002
559.6546 24.53471
560.1367 25.45633
560.6188 25.86234
561.1010 26.33195
561.5831 28.15448
562.0652 32.52734
562.5473 35.54903
563.0294 36.40964
563.5115 36.90871
563.9937 37.74011
564.4758 38.93810
564.9579 40.40884
565.4400 42.14006
565.9221 43.95679
566.4042 45.45656
566.8864 46.55469
567.3685 48.04456
567.8506 50.41121
568.3327 52.79184
568.8148 54.68150
569.2969 56.08104
569.7791 56.98102
570.2612 56.56314
570.7433 56.36703
571.2254 58.32851
571.7075 61.78638
572.1896 64.22372
572.6718 64.70111
573.1539 64.49565
573.6360 65.28296
574.1181 67.30020
574.6002 69.29758
575.0823 71.41801
575.5645 73.36652
576.0466 74.94511
576.5287 76.29388
577.0108 77.65327
577.4929 79.11301
577.9750 80.53616
578.4572 81.65102
578.9393 82.35193
579.4214 83.52103
579.9035 85.96112
580.3856 87.65523
580.8677 87.28067
581.3499 85.90472
581.8320 85.20201
582.3141 85.77975
582.7962 86.47038
583.2783 86.31726
583.7604 85.49820
584.2426 84.58215
584.7247 83.75101
585.2068 82.48909
585.6889 80.08365
586.1710 76.68158
586.6531 74.03653
587.1352 73.00215
587.6173 71.62076
588.0994 69.33572
588.5815 66.51639
589.0637 63.32654
589.5458 59.89729
590.0279 56.67934
590.5100 54.22906
590.9921 52.48044
591.4742 50.18817
591.9564 46.79318
592.4385 43.58228
592.9206 40.84027
593.4027 38.49115
593.8848 36.53444
594.3669 34.89839
594.8491 33.33279
595.3312 31.47710
595.8133 29.60257
596.2954 28.50032
596.7775 28.24814
597.2596 27.74062
597.7418 26.21526
598.2239 24.39946
598.7060 23.92627
599.1881 25.17636
599.6702 25.68376
600.1523 24.60626
600.6345 23.25507
601.1166 22.41042
601.5987 22.04195
602.0808 21.86031
602.5629 21.73694
603.0450 21.79419
603.5272 22.21060
604.0093 23.10231
604.4914 23.92598
604.9735 24.36769
605.4556 25.05418
605.9377 26.47897
606.4199 28.32759
606.9020 29.92159
607.3841 30.93665
607.8662 31.79881
608.3483 32.88414
608.8304 34.20078
609.3126 35.84344
609.7947 37.87621
610.2768 40.03641
610.7589 42.23984
611.2410 44.40552
611.7231 45.87396
612.2053 45.16217
612.6874 45.60365
613.1695 49.32202
613.6516 54.09085
614.1337 57.23972
614.6158 58.42836
615.0980 59.16675
615.5801 60.71606
616.0622 63.04073
616.5443 66.03503
617.0264 70.09579
617.5085 73.96849
617.9907 77.14328
618.4728 80.16312
618.9549 83.46158
619.4370 87.04404
619.9191 90.64690
620.4012 93.98006
620.8834 97.36023
621.3655 101.3139
621.8476 105.7671
622.3297 110.0881
622.8118 113.9798
623.2939 117.8658
623.7761 122.5027
624.2582 128.2085
624.7403 133.1785
625.2224 136.8840
625.7045 140.4776
626.1866 144.4430
626.6688 148.6400
627.1509 152.6718
627.6330 156.4371
628.1151 160.4513
628.5972 165.7133
629.0793 172.2269
629.5615 177.4597
630.0436 180.9719
630.5257 184.0395
631.0078 187.1474
631.4899 190.2085
631.9720 193.1290
632.4542 195.8979
632.9363 198.5025
633.4184 201.0639
633.9005 203.3705
634.3826 204.9995
634.8647 206.0271
635.3469 207.0978
635.8290 208.6167
636.3111 210.3029
636.7932 211.4918
637.2753 212.4176
637.7574 212.3078
638.2396 210.5740
638.7217 208.5422
639.2038 206.8390
639.6859 205.3073
640.1680 203.6761
640.6501 201.8736
641.1323 199.6666
641.6144 196.5009
642.0965 192.5578
642.5786 189.2902
643.0607 187.1938
643.5428 184.6568
644.0250 180.1692
644.5071 174.4557
644.9892 170.0746
645.4713 167.9965
645.9534 165.2949
646.4355 160.8669
646.9177 155.7264
647.3998 150.6571
647.8819 145.8049
648.3640 141.1078
648.8461 136.5107
649.3282 132.1104
649.8104 128.2487
650.2925 125.0389
650.7746 121.8619
651.2567 118.8282
651.7388 115.6722
652.2209 112.0363
652.7031 108.0715
653.1852 104.2861
653.6673 100.8884
654.1494 97.79303
654.6315 94.93983
655.1136 92.22186
655.5958 89.60498
656.0779 87.10681
656.5600 84.36484
657.0421 80.97253
657.5242 77.08170
658.0063 73.86972
658.4885 71.90950
658.9706 69.92328
659.4527 67.99837
659.9348 65.91634
660.4169 63.45844
660.8990 60.68091
661.3812 57.74681
661.8633 54.63672
662.3454 51.70139
662.8275 49.81705
663.3096 48.92673
663.7917 47.43199
664.2739 44.68762
664.7560 42.05852
665.2381 41.03345
665.7202 41.31940
666.2023 40.72462
666.6844 38.33287
667.1666 36.12425
667.6487 34.86906
668.1308 34.03084
668.6129 33.15050
669.0950 32.09163
669.5771 30.74124
670.0593 28.96796
670.5414 26.92609
671.0235 25.02238
671.5056 23.12720
671.9877 21.83841
672.4698 21.65277
672.9520 21.69402
673.4341 21.42397
673.9162 20.86278
674.3983 20.08888
674.8804 19.02571
675.3625 17.88449
675.8447 16.70261
676.3268 15.56894
676.8089 14.79005
677.2910 14.36382
677.7731 13.69153
678.2552 12.18083
678.7374 10.09189
679.2195 8.895538
679.7016 9.068314
680.1837 9.290009
680.6658 9.607025
681.1479 9.775345
681.6301 9.649689
682.1122 9.244827
682.5943 8.594559
683.0764 7.574692
683.5585 6.600388
684.0406 6.303360
684.5228 6.437805
685.0049 6.099243
685.4870 5.089935
685.9691 4.112595
686.4512 3.773865
686.9333 3.947098
687.4155 3.883972
687.8976 3.310974
688.3797 2.877792
688.8618 2.712051
689.3439 2.612793
689.8260 2.466965
690.3082 2.265640
690.7903 1.984604
691.2724 1.554245
691.7545 1.253189
692.2366 1.726303
692.7188 2.824265
693.2009 3.236298
693.6830 2.670898
694.1651 1.808151
694.6472 1.036148
695.1293 0.3664550
695.6115 0.1596980
696.0936 0.6335140
696.5757 0.8289180
697.0578 0.4382930
697.5399 1.7761000E-02
698.0220 0.1669460
698.5042 2.4078000E-02
698.9863 0.2832790
699.4684 0.7011570
699.9505 1.126892
700.4326 1.313461
700.9147 1.264221
701.3969 1.595856
701.8790 2.629974
702.3611 3.360474
702.8432 2.946014
703.3253 1.888290
703.8074 1.335297
704.2896 1.432846
704.7717 1.632172
705.2538 1.834396
705.7359 2.044205
706.2180 2.358719
706.7001 2.680634
707.1823 2.716431
707.6644 2.338791
708.1465 1.842987
708.6286 1.756470
709.1107 2.118820
709.5928 2.050446
710.0750 1.219177
710.5571 0.6569670
711.0392 1.202438
711.5213 2.079132
712.0034 2.237808
712.4855 1.543106
712.9677 0.8888240
713.4498 0.6239170
713.9319 0.4536900
714.4140 0.1809230
714.8961 0.1949460
715.3782 0.6827700
715.8604 1.274109
716.3425 1.826263
716.8246 2.106979
717.3067 2.131042
717.7888 2.517380
718.2709 3.441925
718.7531 4.352249
719.2352 5.023148
719.7173 5.645355
720.1994 6.309616
720.6815 7.040527
721.1636 8.060242
721.6458 9.454315
722.1279 11.14790
722.6100 13.44223
723.0921 15.89603
723.5742 17.54927
724.0563 18.24640
724.5385 18.79141
725.0206 19.91245
725.5027 21.57375
725.9848 23.58910
726.4669 26.16621
726.9490 28.56741
727.4312 30.38663
727.9132 32.24294
728.3953 34.63353
728.8774 37.44313
729.3596 40.26810
729.8417 42.99991
730.3238 45.66585
730.8059 48.05634
731.2880 50.53102
731.7701 53.67450
732.2523 57.46594
732.7344 61.37512
733.2165 65.01790
733.6986 68.65547
734.1807 73.05099
734.6628 78.42998
735.1450 83.58900
735.6271 88.08340
736.1092 92.83272
736.5913 98.60735
737.0734 104.7847
737.5555 110.2630
738.0377 114.5966
738.5198 119.3317
739.0019 125.5844
739.4840 132.2836
739.9661 138.5074
740.4482 144.1425
740.9304 149.2196
741.4125 153.7326
741.8946 157.7777
742.3767 161.6834
742.8588 165.5096
743.3409 167.6194
743.8231 167.6971
744.3052 166.6930
744.7873 164.9305
745.2694 162.1830
745.7515 158.0753
746.2336 152.6214
746.7158 146.6125
747.1979 139.9125
747.6800 133.0433
748.1621 126.3398
748.6442 119.7416
749.1263 113.0694
749.6085 106.3552
750.0906 99.86472
750.5727 93.82788
751.0548 88.20770
751.5369 82.82689
752.0190 77.67331
752.5012 72.75150
752.9833 68.09441
753.4654 63.65237
753.9475 59.32985
754.4296 55.19194
754.9117 51.42657
755.3939 48.19305
755.8760 45.07137
756.3581 41.86505
756.8402 38.73087
757.3223 35.66707
757.8044 32.79886
758.2866 30.41000
758.7687 28.65102
759.2508 27.28810
759.7329 26.03168
760.2150 24.88873
760.6971 23.55760
761.1793 21.94420
761.6614 20.59102
762.1435 19.82835
762.6256 19.35397
763.1077 18.71365
763.5898 17.89896
764.0720 17.01791
764.5541 16.07800
765.0362 15.10097
765.5183 13.91078
766.0004 12.82457
766.4825 12.45262
766.9647 12.71506
767.4468 12.65547
767.9289 11.40405
768.4110 9.468307
768.8931 7.887405
769.3752 6.643982
769.8574 5.856094
770.3395 5.692566
770.8216 5.683655
771.3037 5.401215
771.7858 4.902283
772.2679 4.571014
772.7501 4.636246
773.2322 4.540100
773.7143 4.055023
774.1964 3.538727
774.6785 3.302048
775.1606 3.194183
775.6428 2.798157
776.1249 1.947617
776.6070 1.241318
777.0891 1.482941
777.5712 2.211151
778.0533 2.212463
778.5355 1.531403
779.0176 1.118912
779.4997 1.383972
779.9818 1.843094
780.4639 1.777069
780.9460 1.063904
781.4282 0.7654880
781.9103 1.362762
782.3924 1.659729
782.8745 1.245789
783.3566 0.6489720
783.8387 0.2555540
784.3209 9.5504999E-02
784.8030 0.1075130
785.2851 0.4290920
785.7672 0.6851200
786.2493 0.4267880
786.7314 4.7775000E-02
787.2136 0.1907350
787.6957 3.9992999E-02
788.1778 0.3194580
788.6599 0.4301150
789.1420 0.4800260
789.6241 0.7509460
790.1063 1.304535
790.5884 1.772018
791.0705 2.226105
791.5526 2.435944
792.0347 2.144623
792.5168 1.611191
792.9990 1.165054
793.4811 0.8152620
793.9632 0.6006160
794.4453 0.4099430
794.9274 0.4860080
795.4095 1.225632
795.8917 2.224319
796.3738 2.879517
796.8559 3.077530
797.3380 3.084991
797.8201 3.067551
798.3022 3.076843
798.7844 3.281555
799.2665 3.673203
799.7486 3.956772
800.2307 4.059158
800.7128 4.101883
801.1949 4.138016
801.6771 4.200027
802.1592 4.416595
802.6413 4.867981
803.1234 5.343445
803.6055 5.898560
804.0876 6.418823
804.5698 6.897125
805.0519 7.286057
805.5340 7.407562
806.0161 7.233444
806.4982 7.311615
806.9803 8.320847
807.4625 9.623932
807.9446 10.29173
808.4267 10.45308
808.9088 10.56551
809.3909 10.76952
809.8730 11.21700
810.3552 12.15356
810.8373 13.40622
811.3194 13.84549
811.8015 13.16063
812.2836 12.56369
812.7657 12.31921
813.2479 12.08194
813.7300 11.52107
814.2121 10.82860
814.6942 10.47429
815.1763 10.69612
815.6584 10.68596
816.1406 9.789886
816.6227 8.908890
817.1048 8.966187
817.5869 9.533096
818.0690 9.673050
818.5511 9.111450
819.0333 8.341217
819.5154 7.781281
819.9975 7.417404
820.4796 7.275482
820.9617 7.349274
821.4438 7.371033
821.9260 7.296265
822.4081 7.035660
822.8902 6.453339
823.3723 5.616302
823.8544 4.962357
824.3365 4.765579
824.8187 4.308762
825.3008 3.056274
825.7829 2.082062
826.2650 2.048859
826.7471 2.632492
827.2292 3.456451
827.7114 4.492355
828.1935 4.864212
828.6756 3.532898
829.1577 1.706619
829.6398 0.4707490
830.1219 0.1532440
830.6041 9.4329998E-02
831.0862 0.5877380
831.5683 1.243683
832.0504 1.252975
832.5325 0.7646640
833.0146 0.2591400
833.4968 0.3123320
833.9789 0.4317780
834.4610 0.2409060
834.9431 0.7903900
835.4252 0.4495390
835.9073 0.4562840
836.3895 0.9096830
836.8716 0.6564480
837.3537 0.6674960
837.8358 1.538773
838.3179 2.126114
838.8000 1.609787
839.2822 0.6105040
839.7643 8.3953999E-02
840.2464 0.3077700
840.7285 0.3372500
841.2106 0.2433010
841.6927 0.1375580
842.1749 0.1614070
842.6570 0.3050080
843.1391 0.5744020
843.6212 0.9430850
844.1033 1.247116
844.5854 1.366302
845.0676 1.343521
845.5497 1.188400
846.0318 0.7998200
846.5139 0.9173740
846.9960 1.790848
847.4781 2.699295
847.9603 3.376923
848.4424 3.856827
848.9245 4.048172
849.4066 3.899551
849.8887 4.295364
850.3708 6.075867
850.8530 7.490906
851.3351 7.504593
851.8172 7.141312
852.2993 7.469681
852.7814 8.431839
853.2635 9.293137
853.7457 9.647461
854.2278 9.902145
854.7099 10.47955
855.1920 11.28571
855.6741 12.26474
856.1563 13.32791
856.6384 13.88635
857.1205 13.65955
857.6026 13.26570
858.0847 13.53900
858.5668 14.46568
859.0490 15.70296
859.5311 17.63362
860.0132 18.87042
860.4953 18.42824
860.9774 17.84906
861.4595 18.57706
861.9417 20.22897
862.4238 21.36513
862.9059 21.63148
863.3880 21.94417
863.8701 22.54991
864.3522 23.25557
864.8344 23.91658
865.3165 24.46802
865.7986 24.84145
866.2807 25.05717
866.7628 25.35635
867.2449 25.90756
867.7271 26.66377
868.2092 27.62318
868.6913 28.71747
869.1733 29.79311
869.6555 30.80823
870.1376 31.68880
870.6197 32.37505
871.1018 32.90388
871.5839 33.40627
872.0660 33.92052
872.5482 33.89177
873.0303 32.80627
873.5124 32.65607
873.9945 35.00212
874.4766 38.05376
874.9587 39.02336
875.4409 37.63783
875.9230 37.18228
876.4051 38.33269
876.8872 39.52948
877.3693 40.52180
877.8514 41.34503
878.3336 42.02989
878.8157 42.57364
879.2978 42.94434
879.7799 43.11340
880.2620 43.18660
880.7441 43.50800
881.2263 43.57831
881.7084 42.31969
882.1905 40.33092
882.6726 39.42000
883.1547 40.04193
883.6368 40.88660
884.1190 40.77791
884.6011 39.88087
885.0832 38.51158
885.5653 36.68073
886.0474 35.21231
886.5295 34.28334
887.0117 33.48940
887.4938 32.61539
887.9759 31.62875
888.4580 30.46153
888.9401 29.01096
889.4222 27.84950
889.9044 27.27293
890.3865 26.59832
890.8686 25.47778
891.3507 24.30286
891.8328 23.50349
892.3149 23.06271
892.7971 22.54313
893.2792 21.76723
893.7613 20.97166
894.2434 20.48083
894.7255 19.90279
895.2076 18.65712
895.6898 16.95689
896.1719 15.42673
896.6540 14.33439
897.1361 13.59532
897.6182 13.23340
898.1003 13.00574
898.5825 12.46249
899.0646 11.70295
899.5467 11.19026
900.0288 11.01171
900.5109 10.86128
900.9930 10.53683
901.4752 10.02757
901.9573 9.205490
902.4394 7.967323
902.9215 7.288734
903.4036 7.429169
903.8857 7.422096
904.3679 6.741531
904.8500 5.925903
905.3321 5.713768
905.8142 6.105072
906.2963 6.082535
906.7784 5.257240
907.2606 4.594360
907.7427 4.400139
908.2248 4.218864
908.7069 3.666740
909.1890 2.949020
909.6711 2.415291
910.1533 2.125504
910.6354 2.239021
911.1175 3.478401
911.5996 4.517242
912.0817 3.914635
912.5638 2.541649
913.0460 1.778030
913.5281 1.797844
914.0102 2.064713
914.4923 2.297813
914.9744 2.382385
915.4565 2.179092
915.9387 1.690659
916.4208 0.6067580
916.9029 0.9478760
917.3850 1.431435
917.8671 0.2031940
918.3492 1.334488
918.8314 1.583748
919.3135 0.7602080
919.7956 0.4247820
920.2777 0.7331010
920.7598 0.5962520
921.2419 0.4474790
921.7241 1.330963
922.2062 1.317589
922.6883 0.7561800
923.1704 0.3998410
923.6525 0.3456880
924.1346 0.1590880
924.6168 0.2836530
925.0989 0.7012940
925.5810 1.079544
926.0631 1.353638
926.5452 1.425056
927.0273 1.341713
927.5095 1.257401
927.9916 1.188622
928.4737 1.200279
928.9558 1.250763
929.4379 1.462303
929.9200 2.007385
930.4022 2.767693
930.8843 3.608162
931.3664 4.446564
931.8485 5.078598
932.3306 5.254616
932.8127 5.321251
933.2949 5.759254
933.7770 6.475319
934.2591 7.304932
934.7412 8.189102
935.2233 8.889633
935.7054 9.286636
936.1876 9.673401
936.6697 10.44683
937.1518 11.56963
937.6339 12.82279
938.1160 14.23794
938.5981 15.53467
939.0803 16.67126
939.5624 17.62154
940.0445 18.29619
940.5266 18.85371
941.0087 19.71561
941.4908 20.92489
941.9730 22.29886
942.4551 24.19680
942.9372 25.71062
943.4193 25.93294
943.9014 26.16872
944.3835 27.93282
944.8657 30.78148
945.3478 32.53056
945.8299 32.27318
946.3120 32.11928
946.7941 32.70200
947.2762 33.31372
947.7584 33.50883
948.2405 33.47848
948.7226 33.56475
949.2047 33.79610
949.6868 33.88252
950.1689 33.75091
950.6511 33.32478
951.1332 32.35883
951.6153 31.19104
952.0974 30.22958
952.5795 29.46757
953.0616 28.76752
953.5438 28.06665
954.0259 27.31453
954.5080 26.52240
954.9901 25.60332
955.4722 24.29199
955.9543 22.69150
956.4365 21.14866
956.9186 19.73447
957.4007 18.44593
957.8828 17.27463
958.3649 16.28017
958.8470 15.65473
959.3292 15.37200
959.8113 14.74678
960.2934 13.71886
960.7755 12.83905
961.2576 12.27785
961.7397 11.82195
962.2219 11.32226
962.7040 10.75407
963.1861 10.03406
963.6682 9.144753
964.1503 8.123543
964.6324 6.642906
965.1146 5.607681
965.5967 5.650345
966.0788 6.015305
966.5609 5.891960
967.0430 5.354210
967.5251 4.895149
968.0073 4.603973
968.4894 4.285599
968.9715 3.897415
969.4536 3.503632
969.9357 3.059532
970.4178 2.672737
970.9000 2.550621
971.3821 2.682098
971.8642 2.694382
972.3463 2.485756
972.8284 2.092117
973.3105 1.358871
973.7927 0.5948180
974.2748 1.2352000E-02
974.7569 0.4397510
975.2390 0.4382400
975.7211 0.1146550
976.2032 0.4461360
976.6854 0.1889570
977.1675 1.030899
977.6496 1.289673
978.1317 1.172150
978.6138 0.9760130
979.0959 0.7299270
979.5781 0.5832140
980.0602 0.5361560
980.5423 0.3940050
981.0244 6.5544002E-02
981.5065 0.6919480
981.9886 1.226967
982.4708 1.658020
982.9529 1.877571
983.4350 1.879120
983.9171 1.763596
984.3992 1.573418
984.8813 1.467010
985.3635 1.746140
985.8456 2.390015
986.3277 3.168991
986.8098 4.111610
987.2919 4.682167
987.7740 4.650078
988.2562 4.754639
988.7383 5.677338
989.2204 6.991707
989.7025 7.342331
990.1846 6.293701
990.6667 6.650627
991.1489 9.150543
991.6310 11.12590
992.1131 11.66348
992.5952 11.49698
993.0773 10.97610
993.5594 10.33775
994.0416 10.71378
994.5237 12.92439
995.0058 14.42441
995.4879 14.57819
995.9700 14.82641
996.4521 15.86167
996.9343 17.00763
997.4164 17.53023
997.8985 17.54103
998.3806 17.76736
998.8627 18.50299
999.3448 19.04906
999.8270 19.10804
1000.309 19.15764
1000.791 19.49333
1001.273 19.92474
1001.755 20.17497
1002.238 20.25500
1002.720 20.42066
1003.202 20.74851
1003.684 21.17957
1004.166 21.91093
1004.648 22.51801
1005.130 22.61148
1005.612 22.36928
1006.094 21.94067
1006.577 21.45694
1007.059 21.40745
1007.541 22.27434
1008.023 23.23454
1008.505 23.81185
1008.987 24.02264
1009.469 23.76134
1009.951 23.18574
1010.433 22.54732
1010.916 21.95000
1011.398 21.52818
1011.880 21.44604
1012.362 21.46469
1012.844 21.29773
1013.326 21.02354
1013.808 20.90855
1014.290 20.83121
1014.773 20.18828
1015.255 18.84521
1015.737 17.64372
1016.219 17.46922
1016.701 17.71519
1017.183 17.06415
1017.665 15.89037
1018.147 15.59479
1018.629 16.14697
1019.112 16.31743
1019.594 15.61807
1020.076 14.57047
1020.558 13.67396
1021.040 12.91362
1021.522 12.29546
1022.004 11.78825
1022.486 10.99334
1022.969 9.874687
1023.451 9.043510
1023.933 8.803200
1024.415 8.624474
1024.897 7.829605
1025.379 6.603798
1025.861 5.915184
1026.343 5.802322
1026.825 5.410439
1027.308 4.593719
1027.790 3.873062
1028.272 3.469681
1028.754 3.375961
1029.236 3.675804
1029.718 4.259407
1030.200 4.238091
1030.682 3.506828
1031.165 2.612335
1031.647 1.482422
1032.129 0.5482480
1032.611 6.6230997E-02
1033.093 0.2532810
1033.575 0.2259220
1034.057 1.275444
1034.539 1.876350
1035.021 2.040771
1035.504 1.540955
1035.986 0.1722720
1036.468 1.437668
1036.950 1.322388
1037.432 0.5798570
1037.914 0.1608510
1038.396 3.6667001E-02
1038.878 0.2940290
1039.360 0.9523930
1039.843 1.517433
1040.325 2.036880
1040.807 2.361031
1041.289 2.331429
1041.771 2.160652
1042.253 2.068924
1042.735 2.052055
1043.217 1.903397
1043.700 1.185860
1044.182 1.072227
1044.664 2.047661
1045.146 3.040230
1045.628 3.608788
1046.110 3.985107
1046.592 4.326027
1047.074 4.676163
1047.557 5.237885
1048.039 6.312614
1048.521 7.255768
1049.003 7.849335
1049.485 8.378586
1049.967 9.072350
1050.449 9.708954
1050.931 9.936096
1051.413 9.823990
1051.896 9.886406
1052.378 10.22570
1052.860 10.69731
1053.342 11.40784
1053.824 12.03334
1054.306 12.30049
1054.788 12.51048
1055.270 13.06366
1055.752 13.87933
1056.235 14.51498
1056.717 14.90337
1057.199 15.04859
1057.681 14.69484
1058.163 14.40446
1058.645 14.67807
1059.127 14.98997
1059.609 14.61935
1060.092 13.76875
1060.574 13.35651
1061.056 13.79398
1061.538 13.91294
1062.020 12.91639
1062.502 12.00004
1062.984 11.86826
1063.466 12.04751
1063.948 12.20493
1064.431 12.20733
1064.913 11.78826
1065.395 10.79167
1065.877 9.976067
1066.359 9.709961
1066.841 9.612366
1067.323 9.721146
1067.805 9.705719
1068.287 9.042679
1068.770 8.036743
1069.252 7.549202
1069.734 7.826149
1070.216 7.886589
1070.698 7.105019
1071.180 6.278633
1071.662 5.830643
1072.144 5.514435
1072.627 4.971031
1073.109 4.410202
1073.591 4.405273
1074.073 5.060928
1074.555 5.473076
1075.037 4.973000
1075.519 4.505524
1076.001 4.717445
1076.484 4.998741
1076.966 4.730522
1077.448 4.186394
1077.930 3.908752
1078.412 3.977394
1078.894 4.055023
1079.376 3.959549
1079.858 3.913956
1080.340 4.037445
1080.823 4.239410
1081.305 4.733284
1081.787 5.101936
1082.269 4.451263
1082.751 2.940277
1083.233 2.134888
1083.715 2.938278
1084.197 3.759651
1084.679 3.978104
1085.161 3.828445
1085.644 3.199570
1086.126 2.481079
1086.608 2.073074
1087.090 2.025650
1087.572 2.361618
1088.054 3.290062
1088.536 3.795097
1089.018 3.083008
1089.501 2.236397
1089.983 1.750931
1090.465 1.579506
1090.947 1.806099
1091.429 2.272827
1091.911 2.545128
1092.393 2.507683
1092.875 2.362404
1093.358 1.988159
1093.840 1.769028
1094.322 2.088646
1094.804 2.427460
1095.286 2.123764
1095.768 1.491676
1096.250 1.335236
1096.732 1.794319
1097.214 2.049171
1097.697 1.771011
1098.179 1.321518
1098.661 0.5210040
1099.143 8.8486001E-02
1099.625 0.1340480
1100.107 0.6632460
1100.589 0.6385730
1101.071 3.1036001E-02
1101.553 0.4344020
1102.036 0.4949950
1102.518 0.5328900
1103.000 0.8092730
1103.482 0.9022140
1103.964 0.2094570
1104.446 0.5177690
1104.928 0.2459030
1105.410 0.8138730
1105.893 1.435005
1106.375 1.268730
1106.857 1.102730
1107.339 1.165482
1107.821 1.143028
1108.303 0.7528840
1108.785 0.3775630
1109.267 0.4988560
1109.750 0.8625180
1110.232 0.7899170
1110.714 0.1587300
1111.196 0.5321730
1111.678 1.469810
1112.160 2.123245
1112.642 2.348633
1113.124 2.289566
1113.606 1.654587
1114.089 0.9719850
1114.571 1.287331
1115.053 2.677628
1115.535 3.319824
1116.017 2.433739
1116.499 2.066383
1116.981 2.723763
1117.463 3.375420
1117.945 3.524376
1118.428 3.543877
1118.910 3.782440
1119.392 4.244530
1119.874 4.985649
1120.356 6.251671
1120.838 7.145126
1121.320 7.470901
1121.802 7.822227
1122.285 8.497360
1122.767 9.012970
1123.249 8.848984
1123.731 8.379890
1124.213 8.561302
1124.695 9.484138
1125.177 10.21038
1125.659 10.70084
1126.141 11.11858
1126.624 11.51192
1127.106 11.72896
1127.588 11.55939
1128.070 11.46473
1128.552 12.18806
1129.034 13.60289
1129.516 14.56853
1129.998 15.03397
1130.480 15.54240
1130.963 16.16804
1131.445 16.58118
1131.927 16.61773
1132.409 16.62477
1132.891 16.92142
1133.373 17.46219
1133.855 18.25925
1134.337 19.26752
1134.820 19.51219
1135.302 18.99907
1135.784 19.05177
1136.266 19.97337
1136.748 20.79448
1137.230 20.90671
1137.712 20.63043
1138.194 20.34030
1138.677 20.10667
1139.159 20.25787
1139.641 20.69566
1140.123 20.98447
1140.605 21.07600
1141.087 21.02585
1141.569 20.87302
1142.051 20.86970
1142.533 21.33219
1143.016 21.87910
1143.498 21.84622
1143.980 21.45668
1144.462 21.14902
1144.944 20.92229
1145.426 20.57796
1145.908 20.15144
1146.390 20.07742
1146.872 20.64048
1147.355 21.30865
1147.837 21.67661
1148.319 21.76408
1148.801 21.52570
1149.283 21.06586
1149.765 20.44571
1150.247 19.76695
1150.729 19.21899
1151.212 18.85842
1151.694 18.66138
1152.176 18.49118
1152.658 18.64888
1153.140 19.65429
1153.622 20.76062
1154.104 21.55559
1154.586 21.84380
1155.068 20.99737
1155.551 19.32784
1156.033 18.64348
1156.515 19.87203
1156.997 20.95454
1157.479 21.07016
1157.961 21.14749
1158.443 21.68937
1158.925 22.29138
1159.407 22.50758
1159.890 22.53484
1160.372 22.87835
1160.854 23.64232
1161.336 24.00449
1161.818 23.51862
1162.300 23.31429
1162.782 23.57915
1163.264 23.96236
1163.747 24.51317
1164.229 25.04356
1164.711 25.21367
1165.193 25.09590
1165.675 25.26549
1166.157 25.84104
1166.639 26.50127
1167.121 27.42005
1167.604 27.69612
1168.086 26.91167
1168.568 26.09709
1169.050 25.86164
1169.532 26.12673
1170.014 26.93534
1170.496 28.14743
1170.978 28.37386
1171.460 27.59569
1171.943 26.96584
1172.425 26.61575
1172.907 26.77909
1173.389 27.57398
1173.871 28.13690
1174.353 27.60950
1174.835 26.49572
1175.317 25.60510
1175.799 25.01228
1176.282 25.29298
1176.764 26.17984
1177.246 26.58420
1177.728 26.36430
1178.210 25.99030
1178.692 25.64746
1179.174 25.31862
1179.656 25.03391
1180.139 24.81653
1180.621 24.68257
1181.103 24.59101
1181.585 24.60399
1182.067 24.56743
1182.549 23.94450
1183.031 22.82394
1183.513 22.35915
1183.995 23.33574
1184.478 24.10346
1184.960 23.33219
1185.442 22.46115
1185.924 22.71495
1186.406 23.13137
1186.888 22.37206
1187.370 21.04797
1187.852 20.89383
1188.334 22.21677
1188.817 21.43555
1189.299 22.91785
1189.781 23.65408
1190.263 23.68424
1190.745 20.89373
1191.227 21.74555
1191.709 21.13790
1192.191 20.47028
1192.674 21.83449
1193.156 19.45435
1193.638 20.78687
1194.120 20.63750
1194.602 21.16628
1195.084 20.22674
1195.566 19.74252
1196.048 20.72701
1196.531 20.89621
1197.013 19.78743
1197.495 20.35952
1197.977 17.92834
1198.459 18.13262
1198.941 19.47386
1199.423 18.43890
1199.905 19.03754
1200.387 19.01401
1200.870 16.16205
1201.352 18.22869
1201.834 18.16766
1202.316 15.92144
1202.798 17.81660
1203.280 15.70505
1203.762 15.12934
1204.244 14.58344
1204.726 13.92836
1205.209 13.28492
1205.691 13.15115
1206.173 13.49933
1206.655 13.38981
1207.137 12.20803
1207.619 10.90005
1208.101 9.909065
1208.583 9.258781
1209.066 9.156891
1209.548 9.240494
1210.030 9.193253
1210.512 8.999489
1210.994 8.723869
1211.476 8.378105
1211.958 7.881775
1212.440 7.054710
1212.922 6.338531
1213.405 5.717941
1213.887 5.323425
1214.369 5.318695
1214.851 5.432434
1215.333 5.552170
1215.815 5.530571
1216.297 4.858620
1216.779 3.410133
1217.261 3.344887
1217.744 5.163170
1218.226 5.446205
1218.708 3.475250
1219.190 2.045448
1219.672 2.416107
1220.154 3.022110
1220.636 2.334564
1221.118 0.9728620
1221.600 0.1557920
1222.083 0.1746980
1222.565 9.6031003E-02
1223.047 0.2504120
1223.529 0.3500980
1224.011 0.1727450
1224.493 8.1599999E-04
1224.975 5.5008002E-02
1225.457 3.6628999E-02
1225.940 6.3675001E-02
1226.422 0.1321260
1226.904 4.1916002E-02
1227.386 0.2082600
1227.868 0.1294860
1228.350 0.1485440
1228.832 0.7415770
1229.314 1.433380
1229.797 1.501167
1230.279 0.7098620
1230.761 2.0248000E-02
1231.243 0.4604640
1231.725 0.7648540
1232.207 0.9968110
1232.689 1.075478
1233.171 0.8254090
1233.653 0.5115970
1234.135 0.3704300
1234.618 0.3945010
1235.100 0.6127550
1235.582 1.127258
1236.064 1.105789
1236.546 0.4535900
1237.028 0.3153760
1237.510 1.194901
1237.992 1.580070
1238.475 1.156303
1238.957 0.4930950
1239.439 0.1183550
1239.921 9.0363003E-02
1240.403 0.7999270
1240.885 1.883934
1241.367 2.187286
1241.849 1.875877
1242.332 1.463623
1242.814 1.093323
1243.296 0.8233870
1243.778 0.6868210
1244.260 0.8237230
1244.742 1.531448
1245.224 2.180542
1245.706 2.320953
1246.188 2.179588
1246.671 1.529472
1247.153 1.021225
1247.635 1.833466
1248.117 3.393990
1248.599 3.810219
1249.081 2.645889
1249.563 1.887016
1250.045 1.920609
1250.527 2.131607
1251.010 2.827736
1251.492 3.027924
1251.974 2.094193
1252.456 1.019951
1252.938 0.6449970
1253.420 0.7978740
1253.902 1.158066
1254.384 1.671623
1254.867 1.908165
1255.349 1.895065
1255.831 2.117294
1256.313 2.616211
1256.795 3.020554
1257.277 3.161026
1257.759 3.142563
1258.241 2.899582
1258.724 2.645638
1259.206 2.493401
1259.688 2.383804
1260.170 2.420959
1260.652 2.578949
1261.134 2.892853
1261.616 3.166504
1262.098 2.555916
1262.580 0.9022900
1263.063 0.3476790
1263.545 2.309204
1264.027 3.555763
1264.509 2.685188
1264.991 1.698441
1265.473 0.9975130
1265.955 0.7159960
1266.437 1.156372
1266.919 1.808495
1267.402 1.946594
1267.884 1.658569
1268.366 1.476112
1268.848 1.408546
1269.330 1.349937
1269.812 1.286552
1270.294 1.349518
1270.776 1.563896
1271.259 1.813889
1271.741 2.043068
1272.223 2.071053
1272.705 1.625206
1273.187 1.070824
1273.669 0.8710940
1274.151 0.9826510
1274.633 1.484047
1275.115 2.137535
1275.598 2.645149
1276.080 2.905434
1276.562 2.755119
1277.044 2.155952
1277.526 1.579201
1278.008 0.8997960
1278.490 0.7276540
1278.972 1.730331
1279.454 2.621078
1279.937 2.965019
1280.419 2.795624
1280.901 1.846573
1281.383 0.6509480
1281.865 0.2666240
1282.347 0.6445770
1282.829 1.070503
1283.311 1.563187
1283.794 1.842270
1284.276 1.890816
1284.758 1.445389
1285.240 0.5038760
1285.722 1.4992000E-02
1286.204 0.0000000E+00
