#Shining_header
#data type:raman_database
#CAS:Not entered
#Material scientific name:Laurite
#Manufacturer:Not entered
#Laser model:Not entered
#Spectrometer model:Not entered
#Testing unit:Not entered
#Test time:Not entered
#Other experimental details:Not entered
#Shining_data
177.9024 0.0000000E+00
178.3845 0.5275990
178.8666 0.8437230
179.3488 0.6549640
179.8309 6.0989000E-02
180.3130 5.3295001E-02
180.7951 0.6263620
181.2772 1.086094
181.7593 1.264160
182.2415 1.281307
182.7236 1.270264
183.2057 1.259693
183.6878 1.218067
184.1699 1.084827
184.6520 0.7420310
185.1342 0.5817990
185.6163 0.6689490
186.0984 0.8524550
186.5805 1.088642
187.0626 1.341888
187.5447 1.528385
188.0269 1.512867
188.5090 1.199055
188.9911 1.015663
189.4732 1.217537
189.9553 1.573452
190.4374 1.701588
190.9196 1.440269
191.4017 1.020008
191.8838 0.7421040
192.3659 0.5939710
192.8480 0.5664370
193.3301 0.7755200
193.8123 1.131721
194.2944 1.308121
194.7765 1.087650
195.2586 0.7980000
195.7407 0.8305630
196.2228 1.196163
196.7050 1.553017
197.1871 1.605518
197.6692 1.363926
198.1513 1.225361
198.6334 1.370964
199.1155 1.559875
199.5977 1.595955
200.0798 1.477955
200.5619 1.385311
201.0440 1.538902
201.5261 1.994244
202.0082 2.330856
202.4904 2.458210
202.9725 2.477337
203.4546 2.383644
203.9367 2.197945
204.4188 2.008480
204.9009 1.940830
205.3831 2.056850
205.8652 2.107208
206.3473 2.059177
206.8294 1.976078
207.3115 1.858055
207.7936 1.731323
208.2758 1.666656
208.7579 1.749458
209.2400 2.026878
209.7221 2.235344
210.2042 2.283051
210.6863 2.303417
211.1685 2.358711
211.6506 2.449238
212.1327 2.636234
212.6148 2.936874
213.0969 3.205521
213.5790 3.461212
214.0612 3.659912
214.5433 3.752010
215.0254 3.867760
215.5075 4.046261
215.9896 4.238945
216.4717 4.319496
216.9539 4.168873
217.4360 4.033405
217.9181 3.909084
218.4002 3.827721
218.8823 3.851124
219.3644 4.000286
219.8466 4.147419
220.3287 4.090370
220.8108 3.779427
221.2929 3.554619
221.7750 3.482143
222.2571 3.511608
222.7393 3.602943
223.2214 3.757259
223.7035 3.916592
224.1856 4.023102
224.6677 4.083294
225.1498 4.058022
225.6320 3.829647
226.1141 3.535225
226.5962 3.416157
227.0783 3.542698
227.5604 3.754280
228.0425 3.930199
228.5247 4.069530
229.0068 4.141251
229.4889 4.165920
229.9710 4.110954
230.4531 3.863472
230.9352 3.322506
231.4174 2.779194
231.8995 2.450474
232.3816 2.291492
232.8637 2.200272
233.3458 2.184624
233.8279 2.204483
234.3101 2.105179
234.7922 1.784237
235.2743 1.516174
235.7564 1.595913
236.2385 1.832344
236.7206 1.942875
237.2028 1.721218
237.6849 1.242161
238.1670 0.8216210
238.6491 0.4660000
239.1312 0.1976620
239.6133 4.7591999E-02
240.0955 2.6131000E-02
240.5776 9.6592002E-02
241.0597 0.2099080
241.5418 0.3528370
242.0239 0.4608610
242.5060 0.5397000
242.9882 0.5694850
243.4703 0.5314140
243.9524 0.4479370
244.4345 0.3355830
244.9166 0.1868360
245.3987 3.5140999E-02
245.8809 5.7098001E-02
246.3630 0.4992680
246.8451 0.7953680
247.3272 0.7152940
247.8093 0.4621510
248.2914 0.3163800
248.7736 0.4395030
249.2557 0.7429810
249.7378 0.8637580
250.2199 0.5904660
250.7020 0.3838350
251.1841 0.3210410
251.6663 0.3502770
252.1484 0.4259190
252.6305 0.5274470
253.1126 0.6362880
253.5947 0.6932720
254.0768 0.7543450
254.5590 0.6743580
255.0411 0.3156930
255.5232 0.1349980
256.0053 0.4904750
256.4874 0.6710400
256.9695 0.7056200
257.4517 0.6620480
257.9338 0.3207130
258.4159 0.1710850
258.8980 0.3464050
259.3801 0.6601790
259.8622 0.9595600
260.3444 1.187275
260.8265 1.300808
261.3086 1.204525
261.7907 0.5441130
262.2728 0.2518730
262.7549 0.6270560
263.2371 1.234558
263.7192 1.654026
264.2013 1.772713
264.6834 1.725922
265.1655 1.689240
265.6476 1.592358
266.1298 1.717968
266.6119 2.441998
267.0940 3.188606
267.5761 3.314819
268.0582 2.715145
268.5403 1.929516
269.0225 1.583202
269.5046 1.796165
269.9867 2.003284
270.4688 2.288002
270.9509 2.503620
271.4330 2.452446
271.9152 2.128147
272.3973 1.800373
272.8794 1.722477
273.3615 1.922783
273.8436 2.158478
274.3257 2.536922
274.8079 2.873531
275.2900 2.971863
275.7721 2.838432
276.2542 2.701183
276.7363 2.755268
277.2184 2.967884
277.7006 3.039570
278.1827 2.828735
278.6648 2.587906
279.1469 2.478489
279.6290 2.496700
280.1111 2.595055
280.5933 2.784966
281.0754 3.023010
281.5575 3.169418
282.0396 3.198059
282.5217 3.169342
283.0038 3.124195
283.4860 3.056137
283.9681 2.909153
284.4502 2.585335
284.9323 2.234146
285.4144 2.172298
285.8965 2.520546
286.3787 2.850212
286.8608 2.836342
287.3429 2.588528
287.8250 2.550003
288.3071 2.990009
288.7892 3.525024
289.2714 3.559307
289.7535 3.042191
290.2356 2.536884
290.7177 2.316425
291.1998 2.306824
291.6819 2.284592
292.1641 2.147629
292.6462 2.099411
293.1283 2.564594
293.6104 3.463604
294.0925 3.959503
294.5746 3.403561
295.0568 2.269569
295.5389 1.503605
296.0210 1.262531
296.5031 1.232121
296.9852 1.237038
297.4673 1.254681
297.9495 1.206272
298.4316 1.011177
298.9137 0.7531390
299.3958 0.5482410
299.8779 0.4001920
300.3600 0.3172610
300.8422 0.3797990
301.3243 0.5090640
301.8064 0.5557370
302.2885 0.4299930
302.7706 0.2707370
303.2527 0.2622760
303.7349 0.4073750
304.2170 0.4672200
304.6991 0.2482190
305.1812 2.9362001E-02
305.6633 5.3833000E-02
306.1454 0.3001330
306.6276 0.6477890
307.1097 0.5550840
307.5918 6.7215003E-02
308.0739 0.1709590
308.5560 0.2245790
309.0381 0.7825930
309.5203 0.9324680
310.0024 0.6205980
310.4845 0.2919350
310.9666 0.2398150
311.4487 0.4295580
311.9308 0.7016410
312.4130 1.113598
312.8951 1.505516
313.3772 1.667675
313.8593 1.622623
314.3414 1.637321
314.8235 1.871784
315.3057 2.264793
315.7878 2.659904
316.2699 3.030235
316.7520 3.435596
317.2341 3.903336
317.7162 4.429134
318.1984 5.024197
318.6805 5.720581
319.1626 6.473690
319.6447 7.208466
320.1268 7.916164
320.6089 8.648121
321.0911 9.415417
321.5732 10.23803
322.0553 11.15668
322.5374 12.21814
323.0195 13.32257
323.5016 14.36266
323.9838 15.34423
324.4659 16.31265
324.9480 17.26721
325.4301 18.22706
325.9122 19.18365
326.3943 20.12999
326.8765 21.15327
327.3586 22.31762
327.8407 23.61855
328.3228 24.98252
328.8049 26.31168
329.2870 27.82993
329.7692 29.78654
330.2513 32.14137
330.7334 34.56178
331.2155 36.86938
331.6976 39.12191
332.1797 41.41801
332.6619 43.72047
333.1440 46.20079
333.6261 49.07907
334.1082 52.24033
334.5903 55.49459
335.0724 58.72537
335.5546 62.02225
336.0367 65.45894
336.5188 69.01089
337.0009 72.82858
337.4830 77.13544
337.9651 81.74414
338.4473 86.24202
338.9294 90.44361
339.4115 94.74968
339.8936 99.52279
340.3757 104.7228
340.8578 109.8639
341.3400 114.6804
341.8221 119.4927
342.3042 124.7938
342.7863 130.6566
343.2684 136.6473
343.7505 142.6134
344.2327 148.5528
344.7148 154.4145
345.1969 160.1264
345.6790 165.9213
346.1611 172.2415
346.6432 178.9892
347.1254 185.5036
347.6075 191.3667
348.0896 197.0151
348.5717 202.8513
349.0538 208.9337
349.5359 215.2175
350.0181 221.8429
350.5002 228.6879
350.9823 235.2077
351.4644 241.2964
351.9465 247.0810
352.4286 252.8850
352.9108 258.5509
353.3929 263.4769
353.8750 267.4111
354.3571 270.3044
354.8392 272.1788
355.3214 273.2921
355.8035 273.1165
356.2856 271.5446
356.7677 268.5392
357.2498 264.1018
357.7319 258.2544
358.2141 250.7904
358.6962 240.9595
359.1783 228.4444
359.6604 215.6415
360.1425 202.5085
360.6246 189.3430
361.1068 176.3817
361.5889 163.5761
362.0710 151.1768
362.5531 139.2604
363.0352 127.8691
363.5173 117.7413
363.9995 109.2049
364.4816 101.4117
364.9637 94.12814
365.4458 87.31378
365.9279 80.83447
366.4100 74.58666
366.8922 68.69601
367.3743 63.74823
367.8564 60.26389
368.3385 56.89528
368.8206 53.32143
369.3027 49.84152
369.7849 46.87139
370.2670 44.52555
370.7491 42.50941
371.2312 40.42478
371.7133 38.21981
372.1954 36.14864
372.6776 34.10237
373.1597 32.28074
373.6418 30.81646
374.1239 29.69284
374.6060 28.81204
375.0881 28.11333
375.5703 27.59195
376.0524 26.97034
376.5345 26.09744
377.0166 25.29576
377.4987 24.69036
377.9808 24.18512
378.4630 23.63022
378.9451 22.95638
379.4272 22.21745
379.9093 21.53550
380.3914 20.87394
380.8735 20.34006
381.3557 20.04823
381.8378 19.79264
382.3199 19.38953
382.8020 18.83035
383.2841 18.26956
383.7662 17.88661
384.2484 17.70419
384.7305 17.52797
385.2126 17.25639
385.6947 17.09180
386.1768 17.14271
386.6589 17.34992
387.1411 17.62214
387.6232 17.94200
388.1053 18.22967
388.5874 18.15714
389.0695 17.46512
389.5516 16.89998
390.0338 16.66217
390.5159 16.59005
390.9980 16.57420
391.4801 16.58111
391.9622 16.56086
392.4443 16.40873
392.9265 16.09764
393.4086 15.92632
393.8907 16.05799
394.3728 16.22499
394.8549 16.32568
395.3370 16.34446
395.8192 16.26079
396.3013 15.98060
396.7834 15.55203
397.2655 15.18552
397.7476 14.96669
398.2297 14.72728
398.7119 14.32711
399.1940 13.87023
399.6761 13.48550
400.1582 13.21556
400.6403 13.00392
401.1224 12.82127
401.6046 12.65233
402.0867 12.40617
402.5688 12.00458
403.0509 11.56102
403.5330 11.21423
404.0151 10.97403
404.4973 10.77310
404.9794 10.60400
405.4615 10.44867
405.9436 10.33205
406.4257 10.28314
406.9078 10.05267
407.3900 9.302673
407.8721 8.158581
408.3542 7.295731
408.8363 7.031498
409.3184 6.821831
409.8005 6.312523
410.2827 5.576962
410.7648 4.853432
411.2469 4.214073
411.7290 3.644428
412.2111 3.209229
412.6932 3.014572
413.1754 2.756905
413.6575 2.271458
414.1396 1.759510
414.6217 1.480976
415.1038 1.459295
415.5859 1.443243
416.0681 1.176842
416.5502 0.6317650
417.0323 0.1405320
417.5144 0.3513180
417.9965 0.7321530
418.4786 1.009163
418.9608 1.147825
419.4429 1.029163
419.9250 0.5731560
420.4071 6.1760001E-02
420.8892 0.4341450
421.3713 0.4553590
421.8535 0.3299580
422.3356 0.1112520
422.8177 0.5814190
423.2998 0.8530960
423.7819 0.8929630
424.2640 0.7992520
424.7462 0.6579820
425.2283 0.4667640
425.7104 0.3282590
426.1925 0.2643620
426.6746 0.2261200
427.1567 0.2150330
427.6389 0.2173810
428.1210 0.2260890
428.6031 0.2471100
429.0852 0.2372800
429.5673 6.4677998E-02
430.0494 0.3586540
430.5316 0.6408350
431.0137 0.4904520
431.4958 0.2942030
431.9779 0.3251820
432.4600 0.5894010
432.9421 0.8636860
433.4243 0.9814240
433.9064 0.9705810
434.3885 0.9349190
434.8706 0.8507020
435.3527 0.8098910
435.8348 0.9791030
436.3170 1.211439
436.7991 1.234753
437.2812 0.8709180
437.7633 0.4408820
438.2454 0.2312300
438.7275 0.2156890
439.2097 0.2726000
439.6918 0.3973450
440.1739 0.5257510
440.6560 0.5391810
441.1381 0.4273680
441.6202 0.3556580
442.1024 0.4039710
442.5845 0.5019780
443.0666 0.5566580
443.5487 0.5580430
444.0308 0.5858420
444.5129 0.7275240
444.9951 0.9569870
445.4772 1.021868
445.9593 0.7532460
446.4414 0.5386090
446.9235 0.5117840
447.4056 0.6118090
447.8878 0.7645990
448.3699 0.9392280
448.8520 1.094873
449.3341 1.165400
449.8162 1.116528
450.2983 1.079409
450.7805 1.146992
451.2626 1.140001
451.7447 0.9311370
452.2268 0.5658300
452.7089 0.1398450
453.1910 0.3100830
453.6732 0.7123780
454.1553 0.7195240
454.6374 4.3145999E-02
455.1195 0.5605140
455.6016 0.5735280
456.0837 0.3711050
456.5659 0.1652240
457.0480 5.8060000E-03
457.5301 0.1373230
458.0122 0.3259090
458.4943 0.5569270
458.9764 0.6508450
459.4586 0.5567110
459.9407 0.3901860
460.4228 0.1416090
460.9049 0.1172260
461.3870 0.2470000
461.8691 0.1599100
462.3513 8.8520003E-03
462.8334 0.1070770
463.3155 0.1357610
463.7976 0.1357590
464.2797 0.1211910
464.7618 8.0789998E-02
465.2440 5.9429999E-03
465.7261 0.1402550
466.2082 0.2725350
466.6903 0.4716210
467.1724 0.6128980
467.6545 0.4304500
468.1367 6.3538000E-02
468.6188 0.3847160
469.1009 0.1427970
469.5830 0.5197160
470.0651 0.8800930
470.5472 0.7587990
471.0294 0.6075940
471.5115 0.5030480
471.9936 0.4478450
472.4757 0.4572010
472.9578 0.5301900
473.4399 0.6266540
473.9221 0.7082060
474.4042 0.7902620
474.8863 0.7611010
475.3684 0.4445970
475.8505 0.1929320
476.3326 0.1852660
476.8148 0.3311750
477.2969 0.4921720
477.7790 0.6112920
478.2611 0.6731320
478.7432 0.5932600
479.2253 0.2694870
479.7075 9.8908998E-02
480.1896 0.2713660
480.6717 0.4700260
481.1538 0.5161060
481.6359 0.4411540
482.1180 0.4060690
482.6002 0.5557820
483.0823 0.8125020
483.5644 0.9357190
484.0465 0.8868370
484.5286 0.8283290
485.0107 0.8185180
485.4929 0.8432100
485.9750 0.9114590
486.4571 1.046989
486.9392 1.104525
487.4213 0.9050540
487.9034 0.5794070
488.3856 0.4301110
488.8677 0.5129810
489.3498 0.7052840
489.8319 0.9495320
490.3140 1.227562
490.7961 1.369701
491.2783 1.285696
491.7604 1.163881
492.2425 1.026400
492.7246 0.9226210
493.2067 0.9868560
493.6888 1.266449
494.1710 1.571959
494.6531 1.581108
495.1352 1.106384
495.6173 0.9369340
496.0994 1.351261
496.5815 1.754528
497.0637 1.851366
497.5458 1.710030
498.0279 1.525858
498.5100 1.407543
498.9921 1.318554
499.4742 1.140949
499.9564 0.7870460
500.4385 0.5710580
500.9206 0.6485060
501.4027 0.7863960
501.8848 0.8428480
502.3669 0.8212410
502.8491 0.8144950
503.3312 0.9135210
503.8133 1.067524
504.2954 1.103987
504.7775 0.9783760
505.2596 0.9527110
505.7418 1.246887
506.2239 1.657717
506.7060 1.887157
507.1881 1.885658
507.6702 1.847710
508.1523 1.890251
508.6345 1.952967
509.1166 1.926649
509.5987 1.794668
510.0808 1.624580
510.5629 1.450163
511.0450 1.256163
511.5272 1.102730
512.0093 0.9658390
512.4914 0.9887200
512.9735 1.211859
513.4556 1.543520
513.9377 1.965338
514.4199 2.432810
514.9020 2.729633
515.3841 2.530041
515.8662 1.722244
516.3483 1.167095
516.8304 0.9904790
517.3126 0.9773670
517.7947 1.198889
518.2768 1.519159
518.7589 1.750376
519.2410 1.807806
519.7231 1.748241
520.2053 1.624681
520.6874 1.430956
521.1695 1.337502
521.6516 1.468792
522.1337 1.577030
522.6158 1.400822
523.0980 1.065956
523.5801 0.9367310
524.0622 1.258045
524.5443 1.721502
525.0264 2.032150
525.5085 2.192839
525.9907 2.232071
526.4728 2.158075
526.9549 2.037022
527.4370 1.929352
527.9191 1.814699
528.4012 1.654377
528.8834 1.315559
529.3655 1.038616
529.8476 1.011267
530.3297 1.193693
530.8118 1.477598
531.2939 1.818214
531.7761 2.133303
532.2582 2.193838
532.7403 1.751051
533.2224 1.497534
533.7045 1.632931
534.1866 1.778910
534.6688 1.626516
535.1509 1.272051
535.6330 1.071079
536.1151 1.298809
536.5972 1.775557
537.0793 2.024391
537.5615 2.013393
538.0436 1.922150
538.5257 1.647854
539.0078 1.425833
539.4899 1.532013
539.9720 1.952328
540.4542 2.288445
540.9363 2.239143
541.4184 2.040272
541.9005 2.082743
542.3826 2.362221
542.8647 2.513187
543.3469 2.285189
543.8290 1.869823
544.3111 1.795967
544.7932 2.272192
545.2753 2.543982
545.7574 2.330139
546.2396 1.992540
546.7217 1.833735
547.2038 1.863655
547.6859 1.953964
548.1680 2.021429
548.6501 2.059120
549.1323 2.028860
549.6144 1.811769
550.0965 1.738251
550.5786 2.025934
551.0607 2.313627
551.5428 2.263359
552.0250 1.914217
552.5071 1.634674
552.9892 1.748690
553.4713 2.109854
553.9534 2.270555
554.4355 2.178305
554.9177 2.138338
555.3998 2.326536
555.8819 2.588322
556.3640 2.716778
556.8461 2.698107
557.3282 2.636190
557.8104 2.572739
558.2925 2.483526
558.7746 2.292976
559.2567 2.023031
559.7388 1.871307
560.2209 1.980835
560.7031 2.249922
561.1852 2.354834
561.6673 2.074230
562.1494 1.939417
562.6315 2.077438
563.1136 2.268059
563.5958 2.373888
564.0779 2.383780
564.5600 2.335472
565.0421 2.239202
565.5242 2.114300
566.0063 2.037903
566.4885 2.019005
566.9706 2.029799
567.4527 2.160830
567.9348 2.241014
568.4169 2.091354
568.8990 1.744236
569.3812 1.462654
569.8633 1.425945
570.3454 1.526548
570.8275 1.646101
571.3096 1.762732
571.7917 1.696146
572.2739 1.279902
572.7560 0.7717720
573.2381 0.6606770
573.7202 1.045631
574.2023 1.398298
574.6844 1.752443
575.1666 1.993391
575.6487 1.996668
576.1308 1.821154
576.6129 1.597422
577.0950 1.386551
577.5771 1.230701
578.0593 1.253410
578.5414 1.589655
579.0235 1.774992
579.5056 1.589918
579.9877 1.390900
580.4698 1.364594
580.9520 1.452707
581.4341 1.486961
581.9162 1.363001
582.3983 1.218410
582.8804 1.298454
583.3625 1.576702
583.8447 1.693027
584.3268 1.514614
584.8089 1.261797
585.2910 1.131979
585.7731 1.114885
586.2552 1.168554
586.7374 1.435223
587.2195 1.625385
587.7016 1.495447
588.1837 1.217667
588.6658 1.112843
589.1479 1.270088
589.6301 1.490307
590.1122 1.517960
590.5943 1.323004
591.0764 1.222239
591.5585 1.241652
592.0406 1.337379
592.5228 1.574858
593.0049 1.840513
593.4870 2.002390
593.9691 2.027742
594.4512 1.973749
594.9333 1.919703
595.4155 1.846060
595.8976 1.662796
596.3797 1.315189
596.8618 1.035786
597.3439 0.9636380
597.8260 1.055855
598.3082 1.196877
598.7903 1.431534
599.2724 1.601789
599.7545 1.663155
600.2366 1.631559
600.7188 1.473593
601.2009 1.230364
601.6830 1.015530
602.1651 0.9207100
602.6472 0.9337540
603.1293 1.006374
603.6115 1.178429
604.0936 1.338829
604.5757 1.568916
605.0578 1.707909
605.5399 1.605421
606.0220 1.321140
606.5042 1.045019
606.9863 0.8692720
607.4684 0.7859040
607.9505 0.7975770
608.4326 0.9067960
608.9147 1.070545
609.3969 1.329081
609.8790 1.497595
610.3611 1.346210
610.8432 0.9111330
611.3253 0.6688100
611.8074 0.8033050
612.2896 1.001896
612.7717 1.179558
613.2538 1.287125
613.7359 1.210688
614.2180 0.9294780
614.7001 0.6027510
615.1823 0.4021910
615.6644 0.3266050
616.1465 0.4158340
616.6286 0.9211580
617.1107 1.238314
617.5928 1.066862
618.0750 0.7293430
618.5571 0.5458970
619.0392 0.5785560
619.5213 0.7027510
620.0034 0.9378780
620.4855 1.170162
620.9677 1.064537
621.4498 0.5945090
621.9319 0.2266250
622.4140 0.2233980
622.8961 0.4260980
623.3782 0.4937860
623.8604 0.3722360
624.3425 0.3058780
624.8246 0.3640690
625.3067 0.4484210
625.7888 0.5384540
626.2709 0.5963990
626.7531 0.5143380
627.2352 0.2343810
627.7173 7.1083002E-02
628.1994 3.8904000E-02
628.6815 0.4216460
629.1636 0.7148340
629.6458 0.7375770
630.1279 0.6746370
630.6100 0.5606020
631.0921 0.4472480
631.5742 0.4485230
632.0563 0.6412140
632.5385 0.8033750
633.0206 0.7172430
633.5027 0.5021320
633.9848 0.4290490
634.4669 0.5325260
634.9490 0.5755840
635.4312 0.3551600
635.9133 4.6762001E-02
636.3954 0.2425170
636.8775 5.9762999E-02
637.3596 0.1083930
637.8417 0.2867640
638.3239 0.4168210
638.8060 0.4536210
639.2881 0.4032290
639.7702 0.2942660
640.2523 0.1374630
640.7344 5.1233001E-02
641.2166 0.2758330
641.6987 0.5449070
642.1808 0.6622960
642.6629 0.5424690
643.1450 0.3390850
643.6271 0.1643640
644.1093 1.5003000E-02
644.5914 0.1118640
645.0735 0.2324890
645.5556 0.3118670
646.0377 0.3050630
646.5198 0.2564810
647.0020 0.2693310
647.4841 0.3526650
647.9662 0.4036160
648.4483 0.3168530
648.9304 0.1234440
649.4125 5.0112002E-02
649.8947 0.1773620
650.3768 0.2749000
650.8589 0.3912870
651.3410 0.3962230
651.8231 5.1847000E-02
652.3052 0.5394120
652.7874 0.8806170
653.2695 0.5807360
653.7516 4.4762000E-02
654.2337 0.2558570
654.7158 0.3570690
655.1979 0.4188800
655.6801 0.4841480
656.1622 0.5391330
656.6443 0.5808530
657.1264 0.6139160
657.6085 0.5345760
658.0906 0.1495510
658.5728 9.0630002E-02
659.0549 5.0051000E-02
659.5370 0.3113940
660.0191 0.4222930
660.5012 0.3326340
660.9833 0.1907630
661.4655 9.2359997E-02
661.9476 4.2305000E-02
662.4297 8.8762000E-02
662.9118 0.2539980
663.3939 0.3306980
663.8760 0.2026500
664.3582 2.2329001E-02
664.8403 5.4600002E-04
665.3224 0.1211360
665.8045 0.1548290
666.2866 0.1507700
666.7687 0.3263870
667.2509 0.1008830
667.7330 0.7638950
668.2151 1.002274
668.6972 0.6796840
669.1793 0.2357080
669.6614 0.1167890
670.1436 0.3011510
670.6257 0.3909090
671.1078 0.3386710
671.5899 0.2959060
672.0720 0.3194100
672.5541 0.3460830
673.0363 0.3047390
673.5184 0.2019000
674.0005 0.1341320
674.4826 0.1630990
674.9647 0.2272090
675.4468 0.2407230
675.9290 0.2382350
676.4111 0.3619420
676.8932 0.6600460
677.3753 0.9416260
677.8574 0.9510590
678.3395 0.6691110
678.8217 0.6187020
679.3038 1.192303
679.7859 1.488407
680.2680 1.087486
680.7501 0.5376220
681.2322 0.3394370
681.7144 0.5228790
682.1965 0.7795140
682.6786 0.9378780
683.1607 1.029852
683.6428 1.095598
684.1249 1.136948
684.6071 1.160625
685.0892 1.156507
685.5713 1.165806
686.0534 1.283415
686.5355 1.531645
687.0176 1.613050
687.4998 1.337444
687.9819 1.148056
688.4640 1.267460
688.9461 1.456055
689.4282 1.418228
689.9103 1.159620
690.3925 0.9737380
690.8746 1.134375
691.3567 1.472075
691.8388 1.545845
692.3209 1.342804
692.8030 1.233637
693.2852 1.376680
693.7673 1.516687
694.2494 1.374067
694.7315 0.9906920
695.2136 0.6855550
695.6957 0.3748050
696.1779 0.2462980
696.6600 0.5683120
697.1421 0.9855500
697.6242 1.019833
698.1063 0.6798040
698.5884 0.4203030
699.0706 0.6227300
699.5527 1.083069
700.0348 1.205824
700.5169 0.9443870
700.9990 0.7715640
701.4811 0.8664250
701.9633 0.9431110
702.4454 0.6336250
702.9275 8.3029002E-02
703.4096 0.2056810
703.8917 4.4096000E-02
704.3738 0.2196480
704.8560 0.5756020
705.3381 0.8791280
705.8202 0.9023930
706.3023 0.6709880
706.7844 0.4325010
707.2665 0.3555430
707.7487 0.4025970
708.2308 0.4539740
708.7129 0.5019450
709.1950 0.5981750
709.6771 0.8442040
710.1592 0.9693490
710.6414 0.7599740
711.1235 0.3911840
711.6056 0.1639790
712.0877 0.1252820
712.5698 0.1388910
713.0519 0.1749550
713.5341 0.2112370
714.0162 0.2025170
714.4983 0.1625920
714.9804 0.1827890
715.4625 0.3256210
715.9446 0.4825820
716.4268 0.3616920
716.9089 0.1386180
717.3910 0.3537140
717.8731 6.5084003E-02
718.3552 0.2308650
718.8373 0.2631450
719.3195 0.1743890
719.8016 0.1893330
720.2837 0.3732930
720.7658 0.4876120
721.2479 0.3175950
721.7300 9.1141000E-02
722.2122 8.2516000E-02
722.6943 0.2467000
723.1764 0.3732660
723.6585 0.3640540
724.1406 0.2689250
724.6227 0.1899830
725.1049 0.1700590
725.5870 5.3723998E-02
726.0691 0.3221910
726.5512 0.5265430
727.0333 0.2098050
727.5154 0.2184430
727.9976 0.2769220
728.4797 6.2382001E-02
728.9618 0.2491250
729.4439 0.1036450
729.9260 0.5733570
730.4081 0.7776600
730.8903 0.7935960
731.3724 0.8301320
731.8545 0.9469050
732.3366 1.060198
732.8187 1.075085
733.3008 1.002716
733.7830 0.9807130
734.2651 1.031963
734.7472 1.084236
735.2293 1.096655
735.7114 1.126554
736.1935 1.259222
736.6757 1.456861
737.1578 1.549711
737.6399 1.416916
738.1220 1.255009
738.6041 1.184746
739.0862 1.175119
739.5684 1.196499
740.0505 1.233595
740.5326 1.237560
741.0147 1.165098
741.4968 1.056431
741.9789 1.050215
742.4611 1.196030
742.9432 1.258259
743.4253 1.167219
743.9074 1.047773
744.3895 0.9217380
744.8716 0.8294980
745.3538 0.8841380
745.8359 1.189816
746.3180 1.356108
746.8001 1.014225
747.2822 0.5871830
747.7643 0.5643180
748.2465 0.8609180
748.7286 1.091785
749.2107 1.081198
749.6928 0.9753910
750.1749 0.9821870
750.6570 1.104372
751.1392 1.320841
751.6213 1.754446
752.1034 1.993622
752.5855 1.683487
753.0676 1.226751
753.5497 1.161057
754.0319 1.505829
754.5140 1.732037
754.9961 1.613295
755.4782 1.445322
755.9603 1.425547
756.4424 1.465017
756.9246 1.380589
757.4067 1.158888
757.8888 1.001495
758.3709 1.113565
758.8530 1.385580
759.3351 1.394161
759.8173 1.087021
760.2994 0.9800340
760.7815 1.262924
761.2636 1.620890
761.7457 1.835684
762.2278 1.913725
762.7100 1.918362
763.1921 1.722534
763.6742 1.652613
764.1563 1.982538
764.6384 2.305075
765.1205 2.216057
765.6027 1.829653
766.0848 1.516325
766.5669 1.446701
767.0490 1.511765
767.5311 1.603203
768.0132 1.711119
768.4954 1.769875
768.9775 1.768538
769.4596 1.787611
769.9417 1.892971
770.4238 1.998549
770.9059 1.920446
771.3881 1.552330
771.8702 1.442741
772.3523 1.847075
772.8344 2.196104
773.3165 2.218744
773.7986 2.127335
774.2808 2.179564
774.7629 2.396406
775.2450 2.604269
775.7271 2.729799
776.2092 2.764210
776.6913 2.677698
777.1735 2.492073
777.6556 2.268299
778.1377 2.015032
778.6198 1.849684
779.1019 1.895882
779.5840 2.098131
780.0662 2.156532
780.5483 1.872183
781.0304 1.824999
781.5125 2.302654
781.9946 2.764128
782.4767 2.957973
782.9589 2.950621
783.4410 2.839956
783.9231 2.621271
784.4052 2.448074
784.8873 2.502750
785.3694 2.614281
785.8516 2.535599
786.3337 2.319422
786.8158 2.215042
787.2979 2.331196
787.7800 2.464735
788.2621 2.318855
788.7443 1.910643
789.2264 1.745426
789.7085 1.909981
790.1906 2.077980
790.6727 2.163671
791.1548 2.207830
791.6370 2.253494
792.1191 2.297194
792.6012 2.311033
793.0833 2.235476
793.5654 2.198284
794.0475 2.256735
794.5297 2.370369
795.0118 2.537249
795.4939 2.722561
795.9760 2.820707
796.4581 2.760353
796.9402 2.674017
797.4224 2.824808
797.9045 3.154896
798.3866 3.251225
798.8687 3.061218
799.3508 2.790665
799.8329 2.497257
800.3151 2.258921
800.7972 2.245689
801.2793 2.548189
801.7614 2.717505
802.2435 2.676262
802.7256 2.610968
803.2078 2.507797
803.6899 2.451122
804.1720 2.601212
804.6541 2.919735
805.1362 3.088749
805.6183 2.821344
806.1005 2.465960
806.5826 2.385994
807.0647 2.495647
807.5468 2.639788
808.0289 2.777102
808.5110 2.834888
808.9932 2.757124
809.4753 2.580252
809.9574 2.388021
810.4395 2.164991
810.9216 1.986908
811.4037 1.828518
811.8859 1.765978
812.3680 1.971552
812.8501 2.233742
813.3322 2.180779
813.8143 1.724470
814.2964 1.496458
814.7786 1.941423
815.2607 2.333282
815.7428 2.091877
816.2249 1.606607
816.7070 1.486412
817.1891 1.802532
817.6713 2.148010
818.1534 2.214943
818.6355 2.116720
819.1176 2.107100
819.5997 2.154499
820.0818 1.937819
820.5640 1.358952
821.0461 0.9016400
821.5282 0.9427010
822.0103 1.314859
822.4924 1.511217
822.9745 1.465887
823.4567 1.392462
823.9388 1.212465
824.4209 1.094048
824.9030 1.240694
825.3851 1.408258
825.8672 1.179897
826.3494 0.5124360
826.8315 8.2103997E-02
827.3136 0.4549660
827.7957 0.9555630
828.2778 1.014032
828.7599 0.7878670
829.2421 0.5471150
829.7242 0.3627780
830.2063 0.2215160
830.6884 0.1029490
831.1705 4.6579000E-02
831.6526 0.2297840
832.1348 0.6686130
832.6169 0.7710530
833.0990 0.3442710
833.5811 1.4891000E-02
834.0632 7.8739002E-02
834.5453 0.4469660
835.0275 0.7220000
835.5096 0.8651920
835.9917 0.9173870
836.4738 0.8666970
836.9559 0.7506310
837.4380 0.4756470
837.9202 0.2311630
838.4023 0.3079010
838.8844 0.6174930
839.3665 0.7260880
839.8486 0.2353500
840.3307 0.2630840
840.8129 3.4467999E-02
841.2950 0.5696740
841.7771 0.8336580
842.2592 0.6822970
842.7413 0.4392360
843.2234 0.2909030
843.7056 0.1986240
844.1877 8.0081999E-02
844.6698 7.9099998E-02
845.1519 7.5196996E-02
845.6340 0.1191790
846.1161 0.4348740
846.5983 0.9880600
847.0804 1.512413
847.5625 1.560347
848.0446 1.094156
848.5267 0.8150670
849.0089 0.9022200
849.4910 0.9849830
849.9731 0.8770890
850.4552 0.7838000
850.9373 0.9547600
851.4194 1.314497
851.9016 1.575689
852.3837 1.618662
852.8658 1.548071
853.3479 1.419779
853.8300 1.238743
854.3121 0.9052030
854.7943 0.4843810
855.2764 0.3040850
855.7585 0.5089970
856.2406 0.8870430
856.7227 1.183178
857.2048 1.397364
857.6870 1.376957
858.1691 1.016954
858.6512 0.8527570
859.1333 1.132757
859.6154 1.460037
860.0975 1.470636
860.5797 1.221302
861.0618 1.044291
861.5439 0.9389920
862.0260 0.9058440
862.5081 1.036978
862.9902 1.147184
863.4724 1.088797
863.9545 0.9552990
864.4366 0.8851720
864.9187 0.9032750
865.4008 0.9804310
865.8829 1.198166
866.3651 1.391672
866.8472 1.264105
867.3293 0.9780460
867.8114 0.4623010
868.2935 0.9690060
868.7756 1.257572
869.2578 1.338654
869.7399 0.5957010
870.2220 0.9039780
870.7041 0.7851770
871.1862 0.6456720
871.6683 1.092798
872.1505 0.4521940
872.6326 0.8922310
873.1147 0.9012970
873.5968 1.096794
874.0789 0.8582730
874.5610 0.7481100
875.0432 1.061586
875.5253 1.136749
876.0074 0.8376260
876.4895 1.023771
876.9716 0.3390920
877.4537 0.4254570
877.9359 0.8342780
878.4180 0.5400730
878.9001 0.7148590
879.3822 0.4866390
879.8643 0.7185190
880.3464 0.7496570
880.8286 0.6122930
881.3107 0.4560810
881.7928 0.3453370
882.2749 0.3263020
882.7570 0.5161190
883.2391 0.8079340
883.7213 0.8041500
884.2034 0.5268780
884.6855 0.3826520
885.1676 0.4825950
885.6497 0.6016140
886.1318 0.5579590
886.6140 0.4101940
887.0961 0.3611450
887.5782 0.4714110
888.0603 0.5496560
888.5424 0.5715600
889.0245 0.5939080
889.5067 0.6758020
889.9888 0.7499540
890.4709 0.7441920
890.9530 0.6550710
891.4351 0.4883120
891.9172 4.1225001E-02
892.3994 0.2360630
892.8815 2.1420000E-02
893.3636 0.3505120
893.8457 0.6940560
894.3278 0.8834880
894.8099 0.6121440
895.2921 0.3183270
895.7742 1.146814
896.2563 0.9977680
896.7384 0.3469810
897.2205 5.8695000E-02
897.7026 0.2116010
898.1848 0.2042880
898.6669 8.5464001E-02
899.1490 6.7101002E-02
899.6311 0.1954860
900.1132 0.2673440
900.5953 0.1032810
901.0775 0.3324930
901.5596 0.5766030
902.0417 0.5217880
902.5238 0.4116340
903.0059 0.3871420
903.4880 0.4066300
903.9702 0.3783340
904.4523 0.2711030
904.9344 0.2623120
905.4165 0.5158820
905.8986 0.6548710
906.3807 0.4302690
906.8629 0.1916850
907.3450 0.3331910
907.8271 0.7484700
908.3092 0.9297850
908.7913 0.6460840
909.2734 0.3247030
909.7556 2.9526001E-02
910.2377 0.1122590
910.7198 0.1768880
911.2019 0.6598470
911.6840 0.8336640
912.1661 0.5733340
912.6483 0.2640380
913.1304 0.2475700
913.6125 9.9042997E-02
914.0946 0.2933770
914.5767 0.1289960
915.0588 0.1546040
915.5410 0.3966310
916.0231 0.5842380
916.5052 0.5421240
916.9873 0.3720380
917.4694 0.2652030
917.9515 0.2240010
918.4337 0.1874160
918.9158 0.1535360
919.3979 0.1156750
919.8800 8.5883997E-02
920.3621 4.9203999E-02
920.8442 3.1718999E-02
921.3264 0.1445770
921.8085 0.1367150
922.2906 6.0929999E-02
922.7727 0.2695520
923.2548 0.5851710
923.7369 0.7978610
924.2191 0.7507530
924.7012 0.5644490
925.1833 0.4015770
925.6654 0.2790390
926.1475 0.2156540
926.6296 0.1917930
927.1118 0.2603400
927.5939 0.6063730
928.0760 0.9478820
928.5581 0.9245510
929.0402 0.6004560
929.5223 0.2844070
930.0045 9.8011002E-02
930.4866 4.9957000E-02
930.9687 0.2372550
931.4508 0.4960960
931.9329 0.5517670
932.4150 0.4491480
932.8972 0.3706110
933.3793 0.3638820
933.8614 0.3328630
934.3435 0.1715850
934.8256 1.9861000E-02
935.3077 5.3971998E-02
935.7899 0.3680990
936.2720 0.5472490
936.7541 0.5421750
937.2362 0.4926910
937.7183 0.4484080
938.2004 0.4585780
938.6826 0.6310940
939.1647 0.9746630
939.6468 1.052090
940.1289 0.7147770
940.6110 0.4740260
941.0931 0.4676110
941.5753 0.5282690
942.0574 0.5790710
942.5395 0.6013870
943.0216 0.5208020
943.5037 0.2363530
943.9858 0.1592370
944.4680 0.5583930
944.9501 0.8822650
945.4322 0.8948820
945.9143 0.7557950
946.3964 0.5822680
946.8785 0.4054570
947.3607 0.3152940
947.8428 0.3773000
948.3249 0.4465010
948.8070 0.3686750
949.2891 0.3275490
949.7712 0.5955050
950.2534 0.9913390
950.7355 1.179510
951.2176 1.071554
951.6997 0.8763080
952.1818 0.7073630
952.6639 0.6000160
953.1461 0.6545390
953.6282 0.7380890
954.1103 0.6201290
954.5924 0.3429580
955.0745 0.1641060
955.5566 0.1998140
956.0388 0.3371980
956.5209 0.4332470
957.0030 0.4916500
957.4851 0.5786910
957.9672 0.6975290
958.4493 0.7485310
958.9315 0.7078860
959.4136 0.5756360
959.8957 0.3231830
960.3778 5.8550000E-02
960.8599 8.6239003E-02
961.3420 0.4812550
961.8242 0.8043500
962.3063 1.116369
962.7884 1.181761
963.2705 0.7553920
963.7526 0.2703610
964.2347 0.1569980
964.7169 0.3756560
965.1990 0.6400870
965.6811 1.173536
966.1632 1.403534
966.6453 1.085362
967.1274 0.7439580
967.6096 0.5280060
968.0917 0.4404610
968.5738 0.5845460
969.0559 0.9250920
969.5380 1.069595
970.0201 0.7144070
970.5023 0.4290850
970.9844 0.4391980
971.4665 0.5710260
971.9486 0.7659690
972.4307 0.9525590
972.9128 1.039410
973.3950 1.005094
973.8771 0.9362590
974.3592 0.9415950
974.8413 0.8784040
975.3234 0.4748770
975.8055 1.7550000E-03
976.2877 6.9349997E-02
976.7698 0.2004490
977.2519 0.3748460
977.7340 0.2478960
978.2161 5.9615001E-02
978.6982 3.5213999E-02
979.1804 0.1385590
979.6625 0.4117980
980.1446 0.7846160
980.6267 0.9119670
981.1088 0.7289760
981.5909 0.4817590
982.0731 0.3270140
982.5552 0.2547100
983.0373 0.2769550
983.5194 0.3720860
984.0015 0.3937430
984.4836 0.3386020
984.9658 0.2591080
985.4479 0.1684600
985.9300 8.6429000E-02
986.4121 3.4006000E-02
986.8942 6.5600001E-03
987.3763 3.2395002E-02
987.8585 0.1093450
988.3406 1.3152000E-02
988.8227 0.3533540
989.3048 0.6275760
989.7869 0.6218320
990.2690 0.5190230
990.7512 0.5398550
991.2333 0.6708700
991.7154 0.7286400
992.1975 0.6783620
992.6796 0.6111810
993.1617 0.5462380
993.6439 0.4850850
994.1260 0.3873250
994.6081 0.2998430
995.0902 0.3127880
995.5723 0.4315910
996.0544 0.4848060
996.5366 0.3794830
997.0187 0.3340010
997.5008 0.4354680
997.9829 0.5535790
998.4650 0.6098150
998.9471 0.6275510
999.4293 0.6620780
999.9114 0.7238150
1000.393 0.7220380
1000.876 0.5138810
1001.358 0.3817120
1001.840 0.6209530
1002.322 0.8540430
1002.804 0.5678590
1003.286 1.9045999E-02
1003.768 0.1049520
1004.250 0.4083400
1004.733 0.8701050
1005.215 0.8332550
1005.697 0.6971920
1006.179 0.7921870
1006.661 0.9405000
1007.143 0.8614470
1007.625 0.6108090
1008.107 0.4545940
1008.589 0.5087890
1009.072 0.6156800
1009.554 0.6956610
1010.036 0.7124730
1010.518 0.5156920
1011.000 0.2612660
1011.482 0.2843910
1011.964 0.5928260
1012.446 0.9684330
1012.929 1.314552
1013.411 1.483847
1013.893 1.154005
1014.375 0.5900870
1014.857 0.2910880
1015.339 0.2464400
1015.821 0.4429260
1016.303 0.8273310
1016.785 1.043409
1017.268 0.8242620
1017.750 0.4601760
1018.232 0.4532200
1018.714 0.7144250
1019.196 0.8951660
1019.678 0.9729290
1020.160 0.8525980
1020.642 0.5106540
1021.125 0.2491580
1021.607 0.3165790
1022.089 0.5912120
1022.571 0.8264720
1023.053 1.018912
1023.535 1.150875
1024.017 1.224791
1024.499 1.131956
1024.981 0.8141970
1025.464 0.4916950
1025.946 0.3598080
1026.428 0.3865950
1026.910 0.5082130
1027.392 0.7524970
1027.874 0.7912110
1028.356 0.5566930
1028.838 0.3965670
1029.321 0.4461700
1029.803 0.5629790
1030.285 0.6071110
1030.767 0.6021800
1031.249 0.6781270
1031.731 0.6188090
1032.213 0.9004670
1032.695 0.5002560
1033.177 0.1729790
1033.660 5.6922000E-02
1034.142 0.1293320
1034.624 0.4550960
1035.106 0.9540100
1035.588 1.144939
1036.070 0.9264330
1036.552 0.6335990
1037.034 0.1107440
1037.516 0.2393950
1037.999 0.2474140
1038.481 3.3642001E-02
1038.963 0.3888500
1039.445 0.9563650
1039.927 1.166293
1040.409 0.7104670
1040.891 0.4422430
1041.373 0.4119580
1041.855 0.5287170
1042.338 0.9443140
1042.820 1.315609
1043.302 1.196128
1043.784 0.6730800
1044.266 0.4220900
1044.748 0.6602740
1045.230 0.8487650
1045.712 0.9681970
1046.195 1.013542
1046.677 0.8576590
1047.159 0.6983410
1047.641 0.7607050
1048.123 1.021946
1048.605 1.276405
1049.087 1.601630
1049.569 1.740112
1050.052 1.500280
1050.534 1.246842
1051.016 1.126383
1051.498 1.091669
1051.980 1.100186
1052.462 1.141077
1052.944 1.182139
1053.426 1.188023
1053.908 1.254555
1054.391 1.615742
1054.873 1.796928
1055.355 1.340166
1055.837 0.7265470
1056.319 0.5182630
1056.801 0.6931290
1057.283 0.8782260
1057.765 1.038074
1058.248 1.079803
1058.730 0.7890910
1059.212 0.5866140
1059.694 0.8652400
1060.176 1.248955
1060.658 1.244891
1061.140 0.9124230
1061.622 0.7152900
1062.104 0.8492370
1062.587 0.9693380
1063.069 0.8338090
1063.551 0.7371410
1064.033 0.8974510
1064.515 1.163543
1064.997 1.428576
1065.479 1.627039
1065.961 1.599107
1066.443 1.231295
1066.926 0.8790720
1067.408 0.6603100
1067.890 0.5303260
1068.372 0.4791240
1068.854 0.4890400
1069.336 0.5761990
1069.818 0.7065810
1070.300 0.7872540
1070.782 0.7875010
1071.265 0.7584960
1071.747 0.7139030
1072.229 0.6571790
1072.711 0.5599600
1073.193 0.4745980
1073.675 0.4533810
1074.157 0.4962270
1074.639 0.6034190
1075.122 0.7909970
1075.604 0.9166190
1076.086 0.8835120
1076.568 0.8083160
1077.050 0.7506200
1077.532 0.7066870
1078.014 0.7066300
1078.496 0.7061410
1078.979 0.5592630
1079.461 0.2130850
1079.943 2.1775000E-02
1080.425 0.2666850
1080.907 0.5653460
1081.389 0.7565330
1081.871 0.8597290
1082.353 0.8717920
1082.835 0.8202970
1083.318 0.7620020
1083.800 0.7129130
1084.282 0.6792780
1084.764 0.7159930
1085.246 0.7019670
1085.728 0.4422220
1086.210 0.2309770
1086.692 0.4107350
1087.175 0.7923580
1087.657 1.008095
1088.139 0.9986160
1088.621 0.9811010
1089.103 1.086611
1089.585 1.138283
1090.067 1.015347
1090.549 0.8522290
1091.031 0.7049960
1091.514 0.6123100
1091.996 0.7008330
1092.478 0.9325840
1092.960 0.9222140
1093.442 0.2931320
1093.924 0.1309440
1094.406 0.1342450
1094.888 0.5079330
1095.370 0.6352670
1095.853 0.6235520
1096.335 0.6353690
1096.817 0.6647140
1097.299 0.6212750
1097.781 0.4706320
1098.263 0.2774080
1098.745 4.7752999E-02
1099.227 0.2625230
1099.709 0.1708030
1100.192 4.2279001E-02
1100.674 0.2460680
1101.156 0.3910040
1101.638 0.3620810
1102.120 7.4533001E-02
1102.602 0.1451190
1103.084 0.2378340
1103.566 0.2236720
1104.049 1.6476000E-02
1104.531 0.2096420
1105.013 0.3232500
1105.495 0.3361870
1105.977 0.2596380
1106.459 5.3766999E-02
1106.941 4.4181000E-02
1107.423 0.5634870
1107.906 0.8970130
1108.388 0.6968800
1108.870 0.4155130
1109.352 0.3422500
1109.834 0.3920800
1110.316 0.3930110
1110.798 0.3299150
1111.280 0.3475720
1111.762 0.5632110
1112.245 0.7114790
1112.727 0.6214640
1113.209 0.5853810
1113.691 0.8884760
1114.173 1.250680
1114.655 1.268950
1115.137 0.9751030
1115.619 0.8180020
1116.102 0.9584210
1116.584 0.9438970
1117.066 0.5688430
1117.548 0.3439250
1118.030 0.6348260
1118.512 0.9525000
1118.994 0.7251310
1119.476 0.1065460
1119.958 0.2046520
1120.441 0.1066050
1120.923 2.5053000E-02
1121.405 2.3498001E-02
1121.887 9.5050000E-02
1122.369 0.2255080
1122.851 0.3380870
1123.333 0.3532510
1123.815 0.3365930
1124.297 0.4514250
1124.780 0.7185020
1125.262 0.8414800
1125.744 0.7895070
1126.226 0.6844990
1126.708 0.4987610
1127.190 0.4413860
1127.672 0.6831090
1128.154 0.9675270
1128.636 0.8777320
1129.119 1.026823
1129.601 1.100440
1130.083 0.9502820
1130.565 1.119931
1131.047 0.8983060
1131.529 0.6779520
1132.011 0.6224330
1132.493 0.5619600
1132.976 0.2894450
1133.458 4.3579999E-02
1133.940 9.4051003E-02
1134.422 0.6438270
1134.904 0.8153110
1135.386 0.5926850
1135.868 0.3823860
1136.350 0.2970820
1136.833 0.3416000
1137.315 0.5362110
1137.797 0.7487940
1138.279 0.7607740
1138.761 0.6079650
1139.243 0.3147330
1139.725 3.3194002E-02
1140.207 1.0356000E-02
1140.689 0.4388380
1141.172 0.6947640
1141.654 0.5163790
1142.136 0.2962600
1142.618 0.5317430
1143.100 0.3653130
1143.582 0.7859680
1144.064 0.4267440
1144.546 0.3604000
1145.029 0.5394330
1145.511 0.6402720
1145.993 0.5724670
1146.475 0.4547600
1146.957 0.3040080
1147.439 0.3001900
1147.921 0.8649330
1148.403 1.473453
1148.885 1.350173
1149.368 0.8609440
1149.850 0.7343810
1150.332 0.9845510
1150.814 1.102431
1151.296 0.8601750
1151.778 0.5766200
1152.260 0.4298940
1152.742 0.3587940
1153.224 0.4025340
1153.707 0.4382940
1154.189 0.2784930
1154.671 2.2601999E-02
1155.153 7.3040001E-02
1155.635 4.4264000E-02
1156.117 0.1589590
1156.599 0.1627150
1157.081 0.1941480
1157.563 0.4103850
1158.046 0.5911490
1158.528 0.5179010
1159.010 0.3593440
1159.492 0.3545110
1159.974 0.4934930
1160.456 0.5792060
1160.938 0.5879520
1161.420 0.5742120
1161.903 0.4436330
1162.385 0.4501590
1162.867 0.8612650
1163.349 1.198997
1163.831 1.009491
1164.313 0.5217790
1164.795 0.3098620
1165.277 0.4183830
1165.760 0.4127290
1166.242 0.2023120
1166.724 0.2042060
1167.206 0.5878210
1167.688 0.8369910
1168.170 0.6569190
1168.652 0.2894410
1169.134 1.8076001E-02
1169.616 0.1476960
1170.099 0.1295540
1170.581 7.5360000E-02
1171.063 0.2491370
1171.545 0.3791180
1172.027 0.4057510
1172.509 0.3092680
1172.991 0.2382500
1173.473 0.3071780
1173.956 0.4580650
1174.438 0.6923860
1174.920 0.9006400
1175.402 0.5147230
1175.884 0.2015890
1176.366 0.1971520
1176.848 0.5295570
1177.330 1.079190
1177.813 1.057673
1178.295 0.8598790
1178.777 0.7602290
1179.259 0.7421810
1179.741 0.8761920
1180.223 1.014374
1180.705 0.8592210
1181.187 0.5640970
1181.669 0.5448920
1182.151 0.8019360
1182.634 0.8751750
1183.116 0.4979990
1183.598 0.1787570
1184.080 0.2496870
1184.562 0.4395480
1185.044 0.6869940
1185.526 0.8607570
1186.008 0.7691360
1186.490 0.5183430
1186.973 0.3697750
1187.455 0.3699950
1187.937 0.4025320
1188.419 0.4872660
1188.901 0.5396650
1189.383 0.5169250
1189.865 0.4871970
1190.347 0.5170070
1190.830 0.5436860
1191.312 0.4687760
1191.794 0.3355060
1192.276 0.3143850
1192.758 0.4537640
1193.240 0.5281720
1193.722 0.5269340
1194.204 0.4769140
1194.687 0.3446800
1195.169 0.3189970
1195.651 0.5705690
1196.133 0.8428290
1196.615 0.6734480
1197.097 0.1758210
1197.579 7.9884999E-02
1198.061 0.3687290
1198.543 0.5789990
1199.026 0.6672180
1199.508 0.7359900
1199.990 0.8162780
1200.472 0.8048940
1200.954 0.5984950
1201.436 0.3555130
1201.918 0.3275540
1202.400 0.4276510
1202.883 0.4764840
1203.365 0.5115130
1203.847 0.6622070
1204.329 0.9011960
1204.811 1.103227
1205.293 1.215938
1205.775 1.158169
1206.257 0.7128280
1206.740 0.3042680
1207.222 0.2359470
1207.704 0.3391610
1208.186 0.6092540
1208.668 0.8679230
1209.150 0.8259430
1209.632 0.5271910
1210.114 0.3129170
1210.596 0.2526580
1211.078 0.3110100
1211.561 0.5706910
1212.043 0.7822630
1212.525 0.8507030
1213.007 0.8615500
1213.489 0.9182410
1213.971 0.9343400
1214.453 0.7359180
1214.935 0.3470590
1215.417 0.2285550
1215.900 0.4721740
1216.382 0.6420420
1216.864 0.7192640
1217.346 0.6860770
1217.828 0.5144630
1218.310 0.3392250
1218.792 0.2506830
1219.274 0.2722920
1219.757 0.5127940
1220.239 0.8835670
1220.721 0.9052380
1221.203 0.6531360
1221.685 0.4841900
1222.167 0.4387670
1222.649 0.4353530
1223.131 0.4482380
1223.614 0.5496070
1224.096 0.8451930
1224.578 1.092784
1225.060 0.9171310
1225.542 0.6406680
1226.024 0.6768910
1226.506 0.8625700
1226.988 0.9412560
1227.470 0.8961020
1227.953 0.8172170
1228.435 0.7355260
1228.917 0.7257250
1229.399 0.9213080
1229.881 1.045200
1230.363 0.9613440
1230.845 0.8161660
1231.327 0.7511090
1231.810 0.6838410
1232.292 0.3581700
1232.774 0.5127010
1233.256 6.4723000E-02
1233.738 0.6109100
1234.220 0.9670890
1234.702 0.9012580
1235.184 0.8484440
1235.667 0.9040580
1236.149 0.9044630
1236.631 0.7563480
1237.113 0.5594630
1237.595 0.4348830
1238.077 0.3497410
1238.559 0.1630930
1239.041 7.8365996E-02
1239.523 0.1128910
1240.005 3.2636002E-02
1240.488 0.1755360
1240.970 0.2797110
1241.452 0.4021470
1241.934 0.5729670
1242.416 0.7524520
1242.898 0.9589530
1243.380 1.088741
1243.862 0.9667740
1244.344 0.7727430
1244.827 0.7589660
1245.309 0.7975390
1245.791 0.5541440
1246.273 9.4172001E-02
1246.755 4.3306001E-02
1247.237 0.3952710
1247.719 0.7561950
1248.201 0.9756600
1248.684 0.9825740
1249.166 0.4750420
1249.648 7.6122001E-02
1250.130 0.2204070
1250.612 0.5816580
1251.094 0.7224450
1251.576 0.6871100
1252.058 0.7873670
1252.541 1.064166
1253.023 1.170668
1253.505 1.090553
1253.987 0.8675780
1254.469 0.5059800
1254.951 0.2927950
1255.433 0.3986610
1255.915 0.6345020
1256.397 0.8091990
1256.880 0.9052700
1257.362 0.8370080
1257.844 0.6911790
1258.326 0.6048150
1258.808 0.6031460
1259.290 0.7754270
1259.772 1.054005
1260.254 1.162981
1260.737 0.9422780
1261.219 0.7617870
1261.701 0.9407420
1262.183 1.039771
1262.665 0.7311670
1263.147 0.3841270
1263.629 0.1362020
1264.111 8.4180003E-03
1264.594 3.2678999E-02
1265.076 4.6351001E-02
1265.558 0.1349020
1266.040 0.2238300
1266.522 0.3611270
1267.004 0.6577430
1267.486 0.6567340
1267.968 0.1777600
1268.450 0.1250210
1268.932 0.1022170
1269.415 0.4342830
1269.897 0.3706230
1270.379 0.5144210
1270.861 0.2038090
1271.343 0.5013620
1271.825 0.5806320
1272.307 0.5143280
1272.789 0.6180370
1273.271 0.8739200
1273.754 0.9618090
1274.236 0.7677060
1274.718 0.5545970
1275.200 0.4820110
1275.682 0.4385640
1276.164 0.2041470
1276.646 4.4913001E-02
1277.128 0.1548330
1277.611 0.4530160
1278.093 0.6621210
1278.575 0.7583070
1279.057 0.7464150
1279.539 0.6117940
1280.021 0.4702380
1280.503 0.2594900
1280.985 0.2489730
1281.468 0.5471320
1281.950 0.6825840
1282.432 0.3888110
1282.914 5.3360000E-02
1283.396 4.9450002E-03
1283.878 0.1201760
1284.360 0.2848050
1284.842 0.2715170
1285.324 0.0000000E+00
