#Shining_header
#Data type:raman_database
#CAS:Not entered
#Material scientific name:Atacamite
#Manufacturer:Not entered
#Laser model:Not entered
#Spectrometer model:Not entered
#Testing unit:Not entered
#Test time:Not entered
#Other experimental details:Not entered
#Shining_data
90.12158 0.0000000E+00
90.60370 20.90149
91.08582 37.94827
91.56793 34.21948
92.05005 0.2690730
92.53217 6.447784
93.01428 35.93500
93.49640 80.96249
93.97852 102.7386
94.46063 100.2160
94.94275 89.73041
95.42486 83.33371
95.90697 81.18002
96.38909 88.36365
96.87121 113.7292
97.35332 147.7603
97.83544 172.6813
98.31756 181.0853
98.79967 186.4495
99.28179 201.8094
99.76391 226.8315
100.2460 257.3903
100.7281 291.4390
101.2103 327.2331
101.6924 358.0007
102.1745 376.9461
102.6566 398.9584
103.1387 427.0829
103.6208 462.8323
104.1030 499.4776
104.5851 525.7463
105.0672 543.9782
105.5493 547.5195
106.0314 533.2863
106.5135 507.8550
106.9957 477.2703
107.4778 444.4408
107.9599 409.5161
108.4420 379.6332
108.9241 355.9647
109.4062 335.3107
109.8884 311.3661
110.3705 288.0655
110.8526 276.8106
111.3347 290.5486
111.8168 339.0215
112.2989 373.2537
112.7811 380.7804
113.2632 383.3922
113.7453 400.1079
114.2274 435.5960
114.7095 477.2452
115.1916 503.3540
115.6738 508.1945
116.1559 521.5124
116.6380 560.8187
117.1201 614.2337
117.6022 653.8466
118.0843 666.7518
118.5665 662.8936
119.0486 664.3254
119.5307 676.6914
120.0128 682.2787
120.4949 665.0298
120.9770 623.7557
121.4592 576.6814
121.9413 527.5519
122.4234 478.7236
122.9055 432.8734
123.3876 391.8071
123.8697 353.7535
124.3519 313.0268
124.8340 261.3062
125.3161 222.5470
125.7982 211.3564
126.2803 216.0050
126.7624 217.6414
127.2446 201.6361
127.7267 167.8791
128.2088 142.5961
128.6909 129.5803
129.1730 122.4224
129.6551 121.5510
130.1373 130.1620
130.6194 139.9138
131.1015 146.5602
131.5836 155.1074
132.0657 159.5856
132.5478 157.1883
133.0300 153.7125
133.5121 155.7300
133.9942 160.8796
134.4763 166.7310
134.9584 171.2133
135.4405 174.8886
135.9227 182.5935
136.4048 192.3102
136.8869 201.0674
137.3690 211.5374
137.8511 225.7805
138.3332 242.2141
138.8154 256.8749
139.2975 275.8399
139.7796 288.2224
140.2617 282.7524
140.7438 263.1111
141.2259 248.4836
141.7080 252.0879
142.1902 268.8914
142.6723 280.8449
143.1544 280.3617
143.6365 278.9843
144.1186 289.5586
144.6007 314.1266
145.0829 340.9093
145.5650 364.0008
146.0471 383.7984
146.5292 400.1219
147.0113 414.8893
147.4934 426.1805
147.9756 427.5381
148.4577 416.0776
148.9398 399.0227
149.4219 382.9626
149.9040 366.0862
150.3861 342.8756
150.8683 304.4351
151.3504 249.3269
151.8325 206.7574
152.3146 190.8508
152.7967 178.3796
153.2788 159.9122
153.7610 135.1555
154.2431 109.7986
154.7252 90.41504
155.2073 78.04062
155.6894 69.93719
156.1715 66.05075
156.6537 65.49997
157.1358 69.63785
157.6179 78.29865
158.1000 88.08197
158.5821 91.39496
159.0642 83.77017
159.5464 74.51935
160.0285 61.45258
160.5106 47.83154
160.9927 37.00009
161.4748 30.57709
161.9569 27.89935
162.4391 26.76041
162.9212 26.51199
163.4033 28.32898
163.8854 36.33981
164.3675 46.72876
164.8496 51.29559
165.3318 44.10233
165.8139 26.96066
166.2960 15.02423
166.7781 10.42618
167.2602 8.217651
167.7423 8.067017
168.2245 9.212067
168.7066 6.834839
169.1887 5.554382
169.6708 25.64474
170.1529 35.75647
170.6350 29.71527
171.1172 16.24463
171.5993 1.422577
172.0814 15.04956
172.5635 27.60684
173.0456 27.74579
173.5277 19.20291
174.0099 12.11124
174.4920 12.74316
174.9741 16.48724
175.4562 12.74673
175.9383 3.188690
176.4204 19.19888
176.9025 26.05182
177.3847 25.15387
177.8668 21.52747
178.3489 17.22174
178.8310 12.32999
179.3131 7.033569
179.7952 1.721954
180.2774 7.291809
180.7595 3.457336
181.2416 8.695404
181.7237 20.32727
182.2058 23.06839
182.6879 15.96332
183.1701 8.129028
183.6522 4.001038
184.1343 13.33704
184.6164 13.84183
185.0985 5.316132
185.5806 4.832855
186.0628 5.602539
186.5449 8.229218
187.0270 17.20944
187.5091 17.68613
187.9912 14.55679
188.4733 9.671844
188.9555 3.933746
189.4376 0.8856510
189.9197 0.8171690
190.4018 9.161957
190.8839 16.02542
191.3660 17.51544
191.8482 16.39801
192.3303 14.59616
192.8124 12.95789
193.2945 12.21066
193.7766 14.56155
194.2587 26.33530
194.7409 34.26102
195.2230 35.88354
195.7051 33.51324
196.1872 30.00665
196.6693 26.84109
197.1514 23.87973
197.6336 20.36069
198.1157 11.93808
198.5978 7.672668
199.0799 11.32779
199.5620 20.67953
200.0441 31.18475
200.5263 39.87808
201.0084 47.21042
201.4905 57.93030
201.9726 81.69000
202.4547 98.86240
202.9368 97.79028
203.4190 82.00253
203.9011 64.39218
204.3832 53.20312
204.8653 48.65109
205.3474 46.10898
205.8295 46.03796
206.3117 47.38254
206.7938 50.82483
207.2759 55.97482
207.7580 59.28961
208.2401 57.22354
208.7222 50.19238
209.2044 45.24231
209.6865 45.44754
210.1686 46.12549
210.6507 41.18726
211.1328 29.88815
211.6149 20.74893
212.0970 23.33817
212.5792 35.02905
213.0613 43.54883
213.5434 47.35898
214.0255 46.55832
214.5076 38.27072
214.9897 19.75809
215.4719 4.444763
215.9540 5.757294
216.4361 19.76270
216.9182 39.12256
217.4003 71.63565
217.8824 106.1885
218.3646 116.3841
218.8467 88.86890
219.3288 62.10678
219.8109 74.82196
220.2930 114.9306
220.7751 144.4501
221.2573 137.8044
221.7394 105.3275
222.2215 81.39346
222.7036 70.20435
223.1857 65.82687
223.6678 64.46588
224.1500 65.71066
224.6321 68.13483
225.1142 73.28824
225.5963 79.98746
226.0784 79.56604
226.5605 64.59805
227.0427 50.31824
227.5248 45.61319
228.0069 49.38757
228.4890 55.07730
228.9711 57.76370
229.4532 57.58459
229.9354 57.72626
230.4175 57.87430
230.8996 58.73325
231.3817 61.48096
231.8638 65.62241
232.3459 69.05493
232.8281 69.40790
233.3102 66.40729
233.7923 64.27438
234.2744 61.38937
234.7565 60.32474
235.2386 61.77094
235.7208 66.38766
236.2029 75.50348
236.6850 95.15866
237.1671 129.6105
237.6492 144.9937
238.1313 118.6635
238.6135 88.69653
239.0956 68.31134
239.5777 59.33734
240.0598 58.18542
240.5419 62.03485
241.0240 72.23679
241.5062 76.99152
241.9883 69.22260
242.4704 61.14841
242.9525 59.42090
243.4346 63.36700
243.9167 68.10135
244.3989 67.02100
244.8810 55.74481
245.3631 51.94305
245.8452 63.97012
246.3273 76.21866
246.8094 80.34177
247.2915 75.77805
247.7737 68.09595
248.2558 63.54581
248.7379 62.69183
249.2200 61.75818
249.7021 60.25528
250.1842 59.08652
250.6664 57.90695
251.1485 57.18472
251.6306 58.51532
252.1127 63.81097
252.5948 73.60147
253.0770 86.06079
253.5591 111.1074
254.0412 130.8629
254.5233 131.3952
255.0054 113.6888
255.4875 91.69083
255.9697 82.21884
256.4518 90.59399
256.9339 96.72452
257.4160 99.94266
257.8981 100.4408
258.3802 97.31744
258.8624 91.56964
259.3445 87.25476
259.8266 89.94421
260.3087 103.8580
260.7908 110.6555
261.2729 107.2746
261.7551 101.7418
262.2372 96.56085
262.7193 90.80023
263.2014 86.10495
263.6835 82.84833
264.1656 80.91629
264.6477 81.41641
265.1299 88.08020
265.6120 93.47488
266.0941 93.92258
266.5762 89.05307
267.0583 79.95093
267.5404 66.36951
268.0226 44.48145
268.5047 35.89874
268.9868 50.82532
269.4689 67.63815
269.9510 75.46686
270.4331 73.83026
270.9153 66.52673
271.3974 55.96471
271.8795 39.41379
272.3616 35.06207
272.8437 54.66888
273.3258 73.27409
273.8080 77.91272
274.2901 69.56166
274.7722 57.33372
275.2543 48.61220
275.7364 43.55411
276.2185 39.01077
276.7007 37.27786
277.1828 34.02530
277.6649 24.25912
278.1470 10.32547
278.6291 5.9264999E-02
279.1112 0.7361600
279.5934 13.42638
280.0755 23.19250
280.5576 29.91312
281.0397 34.52094
281.5218 37.49034
282.0039 38.64340
282.4861 36.42479
282.9682 28.47672
283.4503 14.50427
283.9324 13.48738
284.4145 43.12514
284.8966 65.83737
285.3788 64.69460
285.8609 45.91534
286.3430 24.78981
286.8251 11.48291
287.3072 5.687027
287.7893 3.408112
288.2715 7.312027
288.7536 11.52858
289.2357 15.54579
289.7178 18.67825
290.1999 19.83287
290.6820 18.19826
291.1642 14.18384
291.6463 10.52254
292.1284 7.243820
292.6105 4.303986
293.0926 0.3567200
293.5747 4.311798
294.0569 2.593842
294.5390 7.983047
295.0211 23.96320
295.5032 30.95905
295.9853 21.05714
296.4674 10.61414
296.9496 4.293625
297.4317 17.26283
297.9138 18.11885
298.3959 2.100067
298.8780 23.39194
299.3601 37.57959
299.8423 26.22813
300.3244 20.70746
300.8065 27.61145
301.2886 38.54170
301.7707 44.92435
302.2528 43.60138
302.7350 37.37225
303.2171 31.93542
303.6992 28.79416
304.1813 24.05789
304.6634 14.99817
305.1455 5.965958
305.6277 0.5953670
306.1098 0.1513370
306.5919 2.291656
307.0740 6.131058
307.5561 13.65521
308.0382 17.74289
308.5204 16.36273
309.0025 13.58629
309.4846 11.70532
309.9667 11.27762
310.4488 11.98460
310.9309 13.78989
311.4131 17.77979
311.8952 19.29692
312.3773 18.42525
312.8594 15.43938
313.3415 7.743683
313.8236 2.969635
314.3058 10.71136
314.7879 8.629196
315.2700 5.173447
315.7521 14.86430
316.2342 17.95557
316.7163 19.31146
317.1985 21.81677
317.6806 24.20792
318.1627 22.15196
318.6448 10.03355
319.1269 11.51703
319.6090 19.24728
320.0912 5.939102
320.5733 25.50906
321.0554 25.31149
321.5375 12.77943
322.0196 1.715622
322.5017 0.7948610
322.9839 7.960434
323.4660 13.35397
323.9481 17.87361
324.4302 18.91206
324.9123 13.38885
325.3944 5.190155
325.8766 1.665848
326.3587 5.860626
326.8408 6.045700
327.3229 2.935455
327.8050 28.90941
328.2871 47.23135
328.7693 48.47221
329.2514 42.45746
329.7335 38.18896
330.2156 38.76459
330.6977 39.46753
331.1798 31.11723
331.6620 9.766312
332.1441 4.590179
332.6262 3.960114
333.1083 3.059631
333.5904 13.39487
334.0725 26.24307
334.5546 37.44849
335.0367 42.09933
335.5189 39.93100
336.0010 37.31956
336.4831 34.16994
336.9652 31.71786
337.4473 31.14775
337.9294 32.14410
338.4116 32.93365
338.8937 30.46414
339.3758 25.99547
339.8579 27.65883
340.3400 40.24515
340.8221 52.74863
341.3043 57.88121
341.7864 56.86865
342.2685 53.30186
342.7506 45.87619
343.2327 37.50656
343.7148 34.95076
344.1970 39.50040
344.6791 46.23262
345.1612 53.23895
345.6433 60.02124
346.1254 65.49886
346.6075 68.95580
347.0897 71.22714
347.5718 73.08829
348.0539 74.51900
348.5360 75.75912
349.0181 76.28854
349.5002 76.97601
349.9824 79.35568
350.4645 82.85365
350.9466 88.86618
351.4287 103.8228
351.9108 124.3100
352.3929 131.9914
352.8751 114.8710
353.3572 85.72702
353.8393 70.20047
354.3214 70.63901
354.8035 74.88481
355.2856 79.44330
355.7678 85.12918
356.2499 95.63162
356.7320 112.4278
357.2141 125.6967
357.6962 117.7172
358.1783 80.50000
358.6605 57.68613
359.1426 63.78709
359.6247 80.94861
360.1068 93.95148
360.5889 100.0297
361.0710 101.2456
361.5532 98.11346
362.0353 89.52097
362.5174 79.28946
362.9995 57.98289
363.4816 43.34625
363.9637 50.90511
364.4459 75.34229
364.9280 98.25537
365.4101 106.7751
365.8922 101.7019
366.3743 92.64264
366.8564 73.36763
367.3386 57.35449
367.8207 46.50336
368.3028 41.43878
368.7849 44.62167
369.2670 55.81680
369.7491 71.49341
370.2313 79.27017
370.7134 73.76799
371.1955 67.50266
371.6776 59.35240
372.1597 51.29716
372.6418 47.00667
373.1240 47.35971
373.6061 48.01379
374.0882 42.74586
374.5703 26.11537
375.0524 17.25847
375.5345 24.09691
376.0167 32.67734
376.4988 35.48158
376.9809 31.77332
377.4630 26.80226
377.9451 25.80310
378.4272 27.51834
378.9094 32.92216
379.3915 49.88690
379.8736 59.91217
380.3557 50.07539
380.8378 29.37067
381.3199 14.60521
381.8021 15.74290
382.2842 27.23610
382.7663 37.15300
383.2484 45.36737
383.7305 52.08514
384.2126 57.68253
384.6948 61.91148
385.1769 63.68271
385.6590 61.04909
386.1411 59.11079
386.6232 64.72272
387.1053 77.31523
387.5875 87.20624
388.0696 91.16428
388.5517 91.32349
389.0338 91.35486
389.5159 91.60458
389.9980 87.98709
390.4802 77.30933
390.9623 62.61830
391.4444 46.95445
391.9265 29.23669
392.4086 17.90967
392.8907 25.88068
393.3729 52.03874
393.8550 71.19157
394.3371 76.53708
394.8192 76.07333
395.3013 76.38388
395.7834 77.49023
396.2656 75.85959
396.7477 68.32660
397.2298 55.91928
397.7119 46.85333
398.1940 41.57809
398.6761 38.54242
399.1583 39.72047
399.6404 42.37674
400.1225 40.94919
400.6046 32.83737
401.0867 22.61003
401.5688 18.07742
402.0510 22.61101
402.5331 27.75089
403.0152 35.93951
403.4973 43.56470
403.9794 46.43793
404.4615 44.60042
404.9436 42.81468
405.4258 47.27852
405.9079 60.36447
406.3900 67.71530
406.8721 64.15872
407.3542 60.40904
407.8363 60.70877
408.3185 63.88939
408.8006 66.93825
409.2827 68.37723
409.7648 67.79050
410.2469 62.48917
410.7290 47.80902
411.2112 37.24643
411.6933 35.85110
412.1754 39.52457
412.6575 45.32645
413.1396 52.92200
413.6217 58.90706
414.1039 58.30540
414.5860 50.84694
415.0681 42.90436
415.5502 34.81960
416.0323 27.83427
416.5144 24.04730
416.9966 23.32927
417.4787 20.58704
417.9608 7.328888
418.4429 9.076416
418.9250 8.914291
419.4071 13.49651
419.8893 35.72470
420.3714 37.59477
420.8535 22.98274
421.3356 11.59380
421.8177 7.133804
422.2998 5.274948
422.7820 2.458633
423.2641 0.6916660
423.7462 0.3842010
424.2283 6.685104
424.7104 16.81310
425.1925 17.53308
425.6747 3.160416
426.1568 13.95773
426.6389 0.4620360
427.1210 21.76173
427.6031 33.99965
428.0852 31.83730
428.5674 24.91154
429.0495 26.89980
429.5316 44.27470
430.0137 47.41461
430.4958 23.96069
430.9779 0.4692080
431.4601 9.675171
431.9422 8.513535
432.4243 4.696167
432.9064 4.260132
433.3885 6.237732
433.8706 4.783798
434.3528 3.548126
434.8349 9.976120
435.3170 11.57391
435.7991 10.97649
436.2812 10.04057
436.7633 9.228455
437.2455 10.77405
437.7276 20.46483
438.2097 39.47911
438.6918 49.47830
439.1739 39.53848
439.6560 27.37077
440.1382 27.77809
440.6203 39.30034
441.1024 49.38193
441.5845 49.31369
442.0666 44.00412
442.5487 43.61798
443.0309 49.37659
443.5130 55.17036
443.9951 56.62534
444.4772 54.92368
444.9593 54.43082
445.4414 55.19907
445.9236 57.41107
446.4057 61.47563
446.8878 67.06479
447.3699 73.42708
447.8520 80.29393
448.3341 87.76907
448.8163 96.82147
449.2984 112.9697
449.7805 117.9763
450.2626 103.7870
450.7447 83.25209
451.2268 64.01663
451.7090 48.03891
452.1911 35.89896
452.6732 28.09235
453.1553 24.58908
453.6374 26.84540
454.1195 45.24013
454.6017 58.27695
455.0838 58.14796
455.5659 50.98305
456.0480 46.30338
456.5301 48.42761
457.0122 50.95671
457.4944 39.67352
457.9765 8.754303
458.4586 12.34410
458.9407 12.07938
459.4228 5.234436
459.9049 0.3791350
460.3871 4.235962
460.8692 8.512985
461.3513 17.96562
461.8334 28.80228
462.3155 27.51233
462.7976 9.574738
463.2798 5.089813
463.7619 1.328461
464.2440 20.14748
464.7261 30.03133
465.2082 22.78174
465.6903 13.22638
466.1725 10.24957
466.6546 12.44321
467.1367 16.51508
467.6188 21.74030
468.1009 26.60106
468.5830 28.15654
469.0652 24.37878
469.5473 22.61757
470.0294 26.14200
470.5115 29.55415
470.9936 28.11969
471.4757 22.28113
471.9579 15.87906
472.4400 11.86008
472.9221 10.06236
473.4042 8.592865
473.8863 7.371475
474.3684 6.638153
474.8505 6.182739
475.3326 6.328537
475.8148 7.604752
476.2969 9.621353
476.7790 12.19476
477.2611 15.03430
477.7432 17.63852
478.2253 19.43530
478.7075 18.63319
479.1896 18.97684
479.6717 23.20209
480.1538 30.83365
480.6359 38.93091
481.1180 47.03180
481.6002 53.95877
482.0823 56.57217
482.5644 54.74091
483.0465 51.69763
483.5286 47.96112
484.0107 43.93753
484.4929 43.18472
484.9750 45.68948
485.4571 48.82068
485.9392 52.15668
486.4213 55.41017
486.9034 58.06979
487.3856 60.05177
487.8677 61.81055
488.3498 63.62477
488.8319 65.24997
489.3140 68.47781
489.7961 74.30321
490.2783 81.41019
490.7604 90.74210
491.2425 100.3604
491.7246 106.5736
492.2067 107.4197
492.6888 106.7654
493.1710 114.8059
493.6531 136.4996
494.1352 153.6816
494.6173 163.2301
495.0994 167.4836
495.5815 163.5860
496.0637 154.1551
496.5458 148.5001
497.0279 156.6690
497.5100 173.0500
497.9921 181.4647
498.4742 180.2245
498.9564 178.4263
499.4385 178.8658
499.9206 181.7635
500.4027 188.5679
500.8848 202.6365
501.3669 214.8139
501.8491 219.4967
502.3312 219.3865
502.8133 219.8351
503.2954 222.2423
503.7775 223.6944
504.2596 219.1202
504.7418 204.9266
505.2239 206.3071
505.7060 238.7764
506.1881 269.3645
506.6702 284.2793
507.1523 286.1337
507.6345 279.6442
508.1166 266.5057
508.5987 252.6388
509.0808 253.7312
509.5629 278.5045
510.0450 295.6468
510.5272 297.2119
511.0093 293.2285
511.4914 288.9803
511.9735 284.7516
512.4556 278.2859
512.9377 266.8925
513.4199 252.2760
513.9020 239.1605
514.3841 227.8586
514.8662 216.3838
515.3483 202.0642
515.8304 187.6414
516.3126 178.0539
516.7947 176.2800
517.2768 175.9271
517.7589 173.9349
518.2410 170.9937
518.7231 169.9884
519.2053 171.3539
519.6874 169.4424
520.1695 157.2522
520.6516 133.0829
521.1337 115.8927
521.6158 109.7228
522.0980 105.6469
522.5801 101.3094
523.0622 97.10181
523.5443 94.24246
524.0264 93.21793
524.5085 92.91168
524.9907 91.70535
525.4728 89.76901
525.9549 86.00690
526.4370 76.41861
526.9191 68.93228
527.4012 70.86067
527.8834 79.07654
528.3655 82.95230
528.8476 73.74515
529.3297 59.91202
529.8118 53.85138
530.2939 55.30339
530.7761 57.78537
531.2582 59.44249
531.7403 59.76726
532.2224 57.44115
532.7045 52.08589
533.1866 46.21855
533.6688 40.11955
534.1509 33.90945
534.6330 27.28137
535.1151 20.50977
535.5972 14.76805
536.0793 11.12486
536.5615 9.162994
537.0436 5.669113
537.5257 6.072083
538.0078 9.436752
538.4899 5.429352
538.9720 24.39371
539.4542 34.82123
539.9363 34.43393
540.4184 29.48865
540.9005 24.79503
541.3826 20.38925
541.8647 16.23674
542.3469 11.38075
542.8290 9.207687
543.3111 15.23793
543.7932 24.68008
544.2753 28.63765
544.7574 24.05737
545.2396 16.99100
545.7217 8.660416
546.2038 0.7510990
546.6859 2.822205
547.1680 1.027664
547.6501 3.112518
548.1323 6.652435
548.6144 9.804321
549.0965 10.55530
549.5786 8.275787
550.0607 4.704880
550.5428 1.315811
551.0250 7.713196
551.5071 12.42917
551.9892 14.59705
552.4713 12.60771
552.9534 0.9464420
553.4355 23.09398
553.9177 36.77258
554.3998 33.80141
554.8819 24.65732
555.3640 12.36195
555.8461 0.8064270
556.3282 8.603317
556.8104 7.473938
557.2925 1.417648
557.7746 8.728134
558.2567 21.31534
558.7388 27.28848
559.2209 22.28587
559.7031 12.87639
560.1852 8.651657
560.6673 11.62706
561.1494 13.45828
561.6315 11.25597
562.1136 10.46228
562.5958 17.59305
563.0779 28.63072
563.5600 33.35725
564.0421 25.88414
564.5242 11.84592
565.0063 4.075974
565.4885 3.973083
565.9706 5.985535
566.4527 11.08864
566.9348 16.82048
567.4169 22.20435
567.8990 27.10486
568.3812 31.40834
568.8633 36.97897
569.3454 40.78432
569.8275 36.22284
570.3096 24.09807
570.7917 15.32851
571.2739 15.20564
571.7560 19.44507
572.2381 19.93587
572.7202 14.48480
573.2023 12.71301
573.6844 17.50174
574.1666 24.60419
574.6487 33.32048
575.1308 41.84380
575.6129 45.99126
576.0950 42.89920
576.5771 34.96765
577.0593 28.57103
577.5414 22.50360
578.0235 21.05754
578.5056 33.34204
578.9877 43.73250
579.4698 39.20743
579.9519 22.27264
580.4340 9.105347
580.9161 9.581711
581.3983 18.50151
581.8804 30.31508
582.3625 44.60435
582.8446 55.64047
583.3267 61.00092
583.8088 61.53624
584.2910 57.77379
584.7731 47.15744
585.2552 43.11824
585.7373 45.63461
586.2194 48.97922
586.7015 51.97885
587.1837 54.60709
587.6658 57.92619
588.1479 62.73186
588.6300 68.03458
589.1121 71.65010
589.5942 74.56398
590.0764 72.80316
590.5585 57.60640
591.0406 44.30005
591.5227 45.22719
592.0048 57.72279
592.4869 66.88271
592.9691 61.12593
593.4512 51.23833
593.9333 53.20576
594.4154 64.73897
594.8975 69.42946
595.3796 58.72115
595.8618 42.77376
596.3439 39.76308
596.8260 56.73671
597.3081 65.54689
597.7902 59.03487
598.2723 51.06911
598.7545 48.84581
599.2366 51.38310
599.7187 55.24901
600.2008 58.73923
600.6829 62.24188
601.1650 67.87381
601.6472 76.97102
602.1293 78.77136
602.6114 66.56602
603.0935 52.92261
603.5756 45.39468
604.0577 43.44391
604.5399 45.08286
605.0220 54.00348
605.5041 62.48431
605.9862 64.97800
606.4683 62.18849
606.9504 54.43584
607.4326 41.45114
607.9147 29.22906
608.3968 26.05350
608.8789 34.25778
609.3610 38.63690
609.8431 37.17799
610.3253 33.46439
610.8074 26.72926
611.2895 18.86917
611.7716 13.48727
612.2537 11.82185
612.7358 12.87866
613.2180 17.75006
613.7001 25.89732
614.1822 26.21814
614.6643 16.55032
615.1464 7.043686
615.6285 2.029617
616.1107 2.225143
616.5928 9.788696
617.0749 33.74205
617.5570 51.86707
618.0391 53.50523
618.5212 45.75233
619.0034 34.75749
619.4855 22.91701
619.9676 14.37437
620.4497 12.81915
620.9318 17.95006
621.4139 27.73358
621.8961 49.57077
622.3782 63.09613
622.8603 60.44601
623.3424 50.89075
623.8245 40.34712
624.3066 30.04228
624.7888 22.13130
625.2709 19.40675
625.7530 19.29404
626.2351 17.37048
626.7172 13.63350
627.1993 10.33186
627.6815 8.396729
628.1636 7.834869
628.6457 8.401169
629.1278 8.834656
629.6099 13.49991
630.0920 31.06326
630.5742 45.01065
631.0563 41.72310
631.5384 27.01988
632.0205 15.76582
632.5026 15.96931
632.9847 21.94507
633.4669 23.90994
633.9490 21.65634
634.4311 19.57794
634.9132 18.32274
635.3953 17.59648
635.8774 17.07039
636.3596 16.84251
636.8417 17.40816
637.3238 19.18066
637.8059 21.41042
638.2880 23.17899
638.7701 25.31726
639.2523 29.36195
639.7344 35.60526
640.2165 43.66837
640.6986 55.60718
641.1807 71.21219
641.6628 63.04085
642.1450 2.706207
642.6271 37.12537
643.1092 24.32435
643.5913 7.660278
644.0734 25.94780
644.5555 25.53745
645.0377 24.35716
645.5198 38.77376
646.0019 57.31898
646.4840 58.96030
646.9661 44.28773
647.4482 30.17397
647.9304 25.27107
648.4125 26.45123
648.8946 26.63019
649.3767 25.94078
649.8588 23.83681
650.3409 15.00845
650.8231 9.849655
651.3052 16.91307
651.7873 31.76250
652.2694 45.14076
652.7515 53.00609
653.2336 55.83543
653.7158 52.25270
654.1979 42.98486
654.6800 37.10423
655.1621 37.29494
655.6442 37.53011
656.1263 31.37311
656.6085 20.38612
657.0906 15.85582
657.5727 23.68358
658.0548 30.81093
658.5369 31.90498
659.0190 31.06714
659.5012 33.59627
659.9833 39.75389
660.4654 45.39523
660.9475 47.24799
661.4296 45.51210
661.9117 39.91571
662.3939 28.03810
662.8760 20.37199
663.3581 21.28777
663.8402 26.65524
664.3223 35.62999
664.8044 47.78366
665.2866 49.68381
665.7687 27.35803
666.2508 1.889755
666.7329 11.35201
667.2150 14.18273
667.6971 11.56575
668.1793 5.384018
668.6614 2.738647
669.1435 11.51810
669.6256 22.11998
670.1077 23.97884
670.5898 4.615219
671.0720 6.346069
671.5541 9.108231
672.0362 34.13190
672.5183 47.31770
673.0004 43.35045
673.4825 36.20093
673.9647 34.88828
674.4468 35.97029
674.9289 33.72426
675.4110 28.03110
675.8931 21.62386
676.3752 15.52600
676.8574 11.07925
677.3395 12.02011
677.8216 22.26711
678.3037 30.16461
678.7858 34.56671
679.2679 37.99847
679.7501 42.93501
680.2322 47.63603
680.7143 47.66245
681.1964 39.90735
681.6785 31.55653
682.1606 30.28360
682.6428 34.51649
683.1249 41.18805
683.6070 50.26083
684.0891 54.14990
684.5712 44.53447
685.0533 24.05743
685.5355 14.34726
686.0176 28.85344
686.4997 36.70398
686.9818 27.28944
687.4639 17.56427
687.9460 23.19818
688.4282 40.87651
688.9103 54.61263
689.3924 54.76790
689.8745 46.41150
690.3566 33.73621
690.8387 17.94156
691.3209 13.13484
691.8030 25.33411
692.2851 39.72905
692.7672 41.08427
693.2493 29.42937
693.7314 22.99059
694.2136 23.82628
694.6957 27.01050
695.1778 33.21071
695.6599 39.62633
696.1420 43.80804
696.6241 45.10526
697.1063 42.95102
697.5884 33.93298
698.0705 23.19452
698.5526 26.24678
699.0347 43.67697
699.5168 57.29422
699.9990 61.32431
700.4811 57.06070
700.9632 50.70616
701.4453 42.68973
701.9274 37.93251
702.4095 42.40512
702.8917 43.30351
703.3738 30.54305
703.8559 13.86375
704.3380 4.657974
704.8201 5.840729
705.3022 14.72014
705.7844 33.79161
706.2665 57.97771
706.7486 65.44159
707.2307 54.08757
707.7128 44.03571
708.1949 43.24222
708.6771 46.39018
709.1592 45.09724
709.6413 38.18660
710.1234 37.35838
710.6055 53.66295
711.0876 64.83954
711.5698 54.10970
712.0519 33.69357
712.5340 22.42010
713.0161 25.31979
713.4982 32.57898
713.9803 33.72601
714.4625 30.21823
714.9446 29.33501
715.4267 31.17888
715.9088 35.64490
716.3909 44.60913
716.8730 54.24248
717.3552 58.55064
717.8373 57.52225
718.3194 52.35231
718.8015 37.64203
719.2836 24.47318
719.7657 19.31812
720.2479 19.27271
720.7300 19.30150
721.2120 17.84607
721.6942 17.14966
722.1763 20.50661
722.6584 26.86285
723.1405 30.29764
723.6226 30.18434
724.1047 31.26422
724.5869 36.69624
725.0690 42.76993
725.5511 41.54854
726.0332 30.79620
726.5153 23.50925
726.9974 19.79073
727.4796 19.51964
727.9617 26.81607
728.4438 35.90456
728.9259 36.77164
729.4080 28.09491
729.8901 17.69986
730.3723 14.43797
730.8544 16.52370
731.3365 16.59093
731.8186 14.06728
732.3007 15.67348
732.7828 26.26727
733.2650 39.71529
733.7471 46.04160
734.2292 43.66405
734.7113 38.49988
735.1934 26.15732
735.6755 15.97740
736.1577 11.16718
736.6398 11.25323
737.1219 16.88673
737.6040 27.79362
738.0861 38.09113
738.5682 42.37154
739.0504 42.15593
739.5325 42.19232
740.0146 42.38225
740.4967 35.29111
740.9788 15.65939
741.4609 6.871521
741.9431 17.00014
742.4252 11.72440
742.9073 7.362610
743.3894 8.065323
743.8715 4.713440
744.3536 8.956497
744.8358 26.26892
745.3179 40.33571
745.8000 49.69324
746.2821 54.16449
746.7642 51.87262
747.2463 45.58281
747.7285 37.86018
748.2106 29.56810
748.6927 25.85086
749.1748 29.09764
749.6569 33.08241
750.1390 28.88669
750.6212 15.51593
751.1033 5.494888
751.5854 2.402740
752.0675 4.887299
752.5496 3.340286
753.0317 13.93214
753.5139 18.61008
753.9960 16.87117
754.4781 14.71667
754.9602 16.06949
755.4423 17.31042
755.9244 13.93797
756.4066 7.835419
756.8887 2.924515
757.3708 0.5005190
757.8529 1.891037
758.3350 9.624405
758.8171 22.68330
759.2993 29.50737
759.7814 28.75320
760.2635 25.00162
760.7456 15.75002
761.2277 7.124817
761.7098 5.068665
762.1920 8.860626
762.6741 12.96335
763.1562 18.20844
763.6383 21.14885
764.1204 17.91753
764.6025 12.33752
765.0847 10.39949
765.5668 12.32001
766.0489 12.60747
766.5310 6.053711
767.0131 3.620117
767.4952 4.987778
767.9774 2.731644
768.4595 7.192490
768.9416 4.267426
769.4237 1.286057
769.9058 4.892441
770.3879 14.17645
770.8701 21.68521
771.3522 29.59981
771.8343 32.90886
772.3164 26.12006
772.7985 18.08842
773.2806 16.58955
773.7628 20.30975
774.2449 23.19713
774.7270 22.07420
775.2091 19.40718
775.6912 16.54733
776.1733 14.62401
776.6555 20.96651
777.1376 36.81290
777.6197 45.27567
778.1018 33.38515
778.5839 9.618652
779.0660 1.405319
779.5482 7.580658
780.0303 14.61470
780.5124 20.27290
780.9945 23.41116
781.4766 22.14299
781.9587 18.42358
782.4409 14.63745
782.9230 10.84366
783.4051 10.43654
783.8872 21.18396
784.3693 32.63199
784.8514 28.03351
785.3336 11.97562
785.8157 3.987167
786.2978 12.39507
786.7799 26.90370
787.2620 33.04736
787.7441 30.36981
788.2263 26.59026
788.7084 20.99626
789.1905 16.08717
789.6726 12.13544
790.1547 9.890503
790.6368 10.67030
791.1190 14.60728
791.6011 18.49797
792.0832 21.75607
792.5653 24.97020
793.0474 28.47493
793.5295 32.08649
794.0117 35.65814
794.4938 39.09453
794.9759 42.10260
795.4580 44.12833
795.9401 45.89694
796.4222 50.63481
796.9044 57.45097
797.3865 56.88112
797.8686 45.59546
798.3507 33.38539
798.8328 28.51526
799.3149 30.21065
799.7971 36.07635
800.2792 55.92731
800.7613 66.31926
801.2434 55.34499
801.7255 44.14001
802.2076 47.33711
802.6898 60.34113
803.1719 70.34662
803.6540 73.07195
804.1361 73.51099
804.6182 72.11911
805.1003 72.46318
805.5825 80.88574
806.0646 95.43939
806.5467 107.8484
807.0288 113.9760
807.5109 115.9432
807.9930 116.3808
808.4752 115.2507
808.9573 114.4845
809.4394 114.1416
809.9215 113.6801
810.4036 113.5015
810.8857 113.0526
811.3679 110.9265
811.8500 106.0101
812.3321 106.4582
812.8142 119.7123
813.2963 130.9327
813.7784 133.4629
814.2606 130.7093
814.7427 125.1460
815.2248 118.2600
815.7069 114.7859
816.1890 120.9474
816.6711 130.1089
817.1533 133.2178
817.6354 131.3708
818.1175 126.2838
818.5996 118.5662
819.0817 116.0095
819.5638 127.0086
820.0460 147.7138
820.5281 158.1953
821.0102 155.9986
821.4923 150.9765
821.9744 143.3790
822.4565 134.5202
822.9387 123.8604
823.4208 112.7310
823.9029 104.6302
824.3850 99.35187
824.8671 98.03955
825.3492 108.2445
825.8314 116.7666
826.3135 107.8783
826.7956 89.15643
827.2777 79.82257
827.7598 87.37381
828.2419 98.01779
828.7241 96.96475
829.2062 87.53925
829.6883 77.21536
830.1704 66.58841
830.6525 60.34865
831.1346 60.90721
831.6168 63.15981
832.0989 59.56293
832.5810 49.56389
833.0631 47.21704
833.5452 60.89012
834.0273 67.82816
834.5095 53.04979
834.9916 37.03456
835.4737 39.75815
835.9558 57.36739
836.4379 64.95912
836.9200 46.98289
837.4022 29.68390
837.8843 26.10214
838.3664 27.87694
838.8485 25.34258
839.3306 19.24841
839.8127 16.66589
840.2949 21.65219
840.7770 30.24548
841.2591 39.53725
841.7412 47.95996
842.2233 48.01472
842.7054 39.05167
843.1876 26.82286
843.6697 13.00676
844.1518 1.003510
844.6339 2.490295
845.1160 4.771393
845.5981 8.655029
846.0803 5.684433
846.5624 4.492462
847.0445 9.259460
847.5266 15.91791
848.0087 21.11211
848.4908 24.64455
848.9730 26.14366
849.4551 25.10382
849.9372 22.47984
850.4193 17.24820
850.9014 11.61823
851.3835 8.568985
851.8657 7.981293
852.3478 7.289474
852.8299 4.642578
853.3120 1.991943
853.7941 3.168457
854.2762 6.896637
854.7584 7.847351
855.2405 5.433228
855.7226 2.524261
856.2047 0.2772370
856.6868 6.9672003E-02
857.1689 5.695923
857.6511 19.76012
858.1332 27.65479
858.6153 27.14276
859.0974 24.06554
859.5795 19.53584
860.0616 14.18819
860.5438 8.895081
861.0259 3.709732
861.5080 2.726974
861.9901 15.62434
862.4722 23.88341
862.9543 19.84798
863.4364 10.64764
863.9185 3.329391
864.4006 1.082199
864.8828 4.154007
865.3649 6.854446
865.8470 8.472534
866.3291 7.042389
866.8112 4.134293
867.2933 4.655975
867.7755 8.510376
868.2576 9.034576
868.7397 1.849442
869.2218 6.454681
869.7039 1.548447
870.1860 18.57356
870.6682 29.75487
871.1503 29.95306
871.6324 26.52005
872.1145 19.98062
872.5966 13.55489
873.0787 12.00105
873.5609 15.91400
874.0430 18.39748
874.5251 17.95923
875.0072 17.99286
875.4893 19.48491
875.9714 21.62715
876.4536 25.11729
876.9357 28.72084
877.4178 28.08324
877.8999 18.81284
878.3820 11.23787
878.8641 16.43263
879.3463 25.49789
879.8284 25.39093
880.3105 17.81775
880.7926 11.53046
881.2747 10.46227
881.7568 14.80760
882.2390 29.43205
882.7211 50.57047
883.2032 55.26913
883.6853 42.72563
884.1674 34.24771
884.6495 36.86781
885.1317 42.51321
885.6138 42.64088
886.0959 37.70096
886.5780 34.49750
887.0601 29.50667
887.5422 33.24599
888.0244 59.37166
888.5065 82.32318
888.9886 83.11853
889.4707 69.35245
889.9528 59.81427
890.4349 57.50859
890.9171 57.36134
891.3992 60.07385
891.8813 62.42851
892.3634 60.83051
892.8455 57.88747
893.3276 57.85156
893.8098 61.85152
894.2919 68.41481
894.7740 79.25703
895.2561 90.07745
895.7382 93.79160
896.2203 92.81604
896.7025 93.22806
897.1846 96.35504
897.6667 101.0437
898.1488 106.5276
898.6309 112.6657
899.1130 119.4170
899.5952 126.7898
900.0773 133.0912
900.5594 137.9472
901.0415 142.7836
901.5236 149.2053
902.0057 154.7276
902.4879 153.1915
902.9700 140.7829
903.4521 140.7370
903.9342 167.3547
904.4163 186.9140
904.8984 184.8010
905.3806 177.6590
905.8627 182.0889
906.3448 196.4653
906.8269 205.1743
907.3090 197.2936
907.7911 193.3265
908.2733 208.0480
908.7554 224.2831
909.2375 224.5293
909.7196 213.1891
910.2017 205.3071
910.6838 207.0501
911.1660 207.3020
911.6481 191.3881
912.1302 170.6318
912.6123 167.2223
913.0944 175.1873
913.5765 169.8305
914.0587 144.8531
914.5408 120.0888
915.0229 116.3115
915.5050 125.1090
915.9871 115.5941
916.4692 87.42114
916.9514 70.94353
917.4335 72.50363
917.9156 78.92201
918.3977 83.26543
918.8798 84.37308
919.3619 78.39185
919.8441 61.06248
920.3262 48.71063
920.8083 47.76923
921.2904 44.60320
921.7725 24.56647
922.2546 6.086029
922.7368 14.91386
923.2189 49.75084
923.7010 67.47258
924.1831 44.90483
924.6652 27.26410
925.1473 35.30705
925.6295 47.36958
926.1116 42.91034
926.5937 27.17551
927.0758 18.08211
927.5579 23.95233
928.0400 30.06398
928.5222 25.11031
929.0043 16.11687
929.4864 10.00891
929.9685 6.614029
930.4506 4.662903
930.9327 3.676590
931.4149 3.092560
931.8970 1.436111
932.3791 1.098755
932.8612 10.76151
933.3433 27.06145
933.8254 31.51195
934.3076 21.39923
934.7897 9.224625
935.2718 2.137039
935.7539 1.553925
936.2360 3.125366
936.7181 2.359970
937.2003 2.626251
937.6824 14.42386
938.1645 20.65044
938.6466 14.31750
939.1287 5.021454
939.6108 4.907257
940.0930 13.48256
940.5751 14.71483
941.0572 0.2128450
941.5393 8.302444
942.0214 6.718811
942.5035 1.497986
942.9857 6.226608
943.4678 14.64795
943.9499 21.03772
944.4320 25.62503
944.9141 25.53647
945.3962 12.74526
945.8784 3.260956
946.3605 8.630798
946.8426 20.40903
947.3247 29.23972
947.8068 33.34274
948.2889 33.65382
948.7711 29.45677
949.2532 23.75835
949.7353 16.56665
950.2174 10.85205
950.6995 12.23886
951.1816 18.97969
951.6638 24.47963
952.1459 26.01186
952.6280 26.14439
953.1101 27.81232
953.5922 30.13316
954.0743 31.26270
954.5565 31.15291
955.0386 28.12102
955.5207 22.03362
956.0028 20.48465
956.4849 30.59677
956.9670 46.63770
957.4492 51.17133
957.9313 43.28575
958.4134 40.27859
958.8955 44.23387
959.3776 47.98999
959.8597 48.47264
960.3419 46.79240
960.8240 44.06682
961.3061 40.19833
961.7882 38.92928
962.2703 41.03293
962.7524 44.30359
963.2346 50.98166
963.7167 55.48022
964.1988 48.69972
964.6809 37.04831
965.1630 41.43361
965.6451 73.73524
966.1273 92.69797
966.6094 87.02046
967.0915 77.33917
967.5736 67.35152
968.0557 60.53230
968.5378 60.16829
969.0200 66.44846
969.5021 77.83635
969.9842 101.9982
970.4663 120.0784
970.9484 121.5441
971.4305 115.2826
971.9127 105.3208
972.3948 95.12097
972.8769 90.88196
973.3590 94.66135
973.8411 97.87750
974.3232 93.95425
974.8054 85.97408
975.2875 74.99635
975.7696 63.64333
976.2517 55.99103
976.7338 52.88136
977.2159 53.43561
977.6981 56.84018
978.1802 64.90077
978.6623 88.81198
979.1444 116.9443
979.6265 112.2699
980.1086 79.79770
980.5908 60.29071
981.0729 68.09608
981.5550 79.21884
982.0371 67.06290
982.5192 40.52359
983.0013 30.05180
983.4835 35.87593
983.9656 45.92325
984.4477 59.28909
984.9298 64.73373
985.4119 54.47429
985.8940 36.27582
986.3762 23.23270
986.8583 15.27493
987.3404 15.87604
987.8225 28.98734
988.3046 35.42372
988.7867 26.79489
989.2689 17.24310
989.7510 20.82950
990.2331 33.33156
990.7152 35.27457
991.1973 20.92178
991.6794 8.472992
992.1616 5.350922
992.6437 12.32027
993.1258 4.220322
993.6079 9.210678
994.0900 16.38046
994.5721 17.41219
995.0543 16.45714
995.5364 11.55533
996.0185 7.447388
996.5006 4.501785
996.9827 2.918671
997.4648 4.106659
997.9470 6.323547
998.4291 5.250900
998.9112 0.8521730
999.3933 2.394409
999.8754 9.315887
1000.358 20.47627
1000.840 24.63680
1001.322 23.94339
1001.804 18.82918
1002.286 11.26067
1002.768 6.460266
1003.250 6.646255
1003.732 8.501389
1004.214 10.95770
1004.697 13.71921
1005.179 16.25168
1005.661 18.57518
1006.143 21.25941
1006.625 23.93167
1007.107 23.66963
1007.589 16.23622
1008.071 9.563416
1008.553 14.17589
1009.036 22.54648
1009.518 23.08325
1010.000 17.15511
1010.482 11.50616
1010.964 8.765076
1011.446 9.140259
1011.928 15.83784
1012.410 23.36671
1012.893 21.72293
1013.375 13.86208
1013.857 4.518417
1014.339 4.005188
1014.821 4.896698
1015.303 5.937012
1015.785 20.02975
1016.267 26.89590
1016.749 27.24516
1017.232 20.09985
1017.714 7.488770
1018.196 2.105408
1018.678 7.004929
1019.160 18.06987
1019.642 33.61032
1020.124 48.17935
1020.606 45.52043
1021.089 27.96909
1021.571 20.45189
1022.053 24.47958
1022.535 25.03139
1023.017 16.12605
1023.499 7.004730
1023.981 7.467300
1024.463 15.64307
1024.945 25.43571
1025.428 37.92105
1025.910 36.56982
1026.392 16.11952
1026.874 1.718018
1027.356 7.343948
1027.838 19.77794
1028.320 19.06931
1028.802 5.988693
1029.285 4.095871
1029.767 18.53935
1030.249 23.23654
1030.731 9.453262
1031.213 3.189758
1031.695 2.361832
1032.177 7.504135
1032.659 18.82359
1033.141 33.13661
1033.624 37.15317
1034.106 24.21846
1034.588 15.86749
1035.070 19.21979
1035.552 25.09207
1036.034 26.61867
1036.516 25.14630
1036.998 25.36649
1037.480 30.22079
1037.963 28.29723
1038.445 13.78888
1038.927 1.144257
1039.409 8.889801
1039.891 12.15450
1040.373 0.8284610
1040.855 25.79608
1041.337 36.30798
1041.820 21.62949
1042.302 10.92885
1042.784 4.429901
1043.266 1.890305
1043.748 5.339432
1044.230 11.61601
1044.712 16.80154
1045.194 20.77905
1045.677 25.90662
1046.159 39.60118
1046.641 43.54367
1047.123 22.72134
1047.605 5.633224
1048.087 11.54303
1048.569 28.03578
1049.051 38.53561
1049.533 41.65359
1050.016 38.67021
1050.498 21.27370
1050.980 10.53648
1051.462 15.61894
1051.944 23.73898
1052.426 28.72362
1052.908 29.96036
1053.390 25.08809
1053.872 12.86552
1054.355 8.912628
1054.837 27.83972
1055.319 41.38135
1055.801 36.38672
1056.283 24.84335
1056.765 13.10654
1057.247 3.404373
1057.729 1.048599
1058.212 0.3942110
1058.694 5.309906
1059.176 16.34328
1059.658 26.51143
1060.140 36.44666
1060.622 40.92081
1061.104 29.85368
1061.586 9.768890
1062.068 0.7064210
1062.551 4.620010
1063.033 12.49084
1063.515 21.58353
1063.997 27.60518
1064.479 26.00616
1064.961 21.63629
1065.443 19.91347
1065.925 20.47256
1066.407 19.31012
1066.890 13.88942
1067.372 11.46074
1067.854 16.83478
1068.336 24.25529
1068.818 35.36331
1069.300 42.94357
1069.782 33.73027
1070.264 11.83946
1070.747 0.4009250
1071.229 7.757797
1071.711 17.33034
1072.193 20.29405
1072.675 20.60155
1073.157 18.75038
1073.639 17.43210
1074.121 21.43129
1074.603 29.89818
1075.086 37.53494
1075.568 45.39590
1076.050 45.35861
1076.532 24.21321
1077.014 3.292862
1077.496 2.139664
1077.978 3.329056
1078.460 16.49214
1078.943 33.72670
1079.425 40.48581
1079.907 24.57611
1080.389 9.776001
1080.871 6.172302
1081.353 9.079773
1081.835 20.71556
1082.317 33.42525
1082.799 34.76003
1083.281 24.44131
1083.764 15.72260
1084.246 13.41678
1084.728 14.23186
1085.210 19.49446
1085.692 25.00665
1086.174 26.39400
1086.656 24.92465
1087.138 21.07758
1087.621 15.78642
1088.103 12.58096
1088.585 12.50279
1089.067 15.93660
1089.549 31.15216
1090.031 42.88727
1090.513 32.44289
1090.995 13.64395
1091.478 9.931412
1091.960 23.79605
1092.442 37.90797
1092.924 51.68327
1093.406 56.92984
1093.888 40.44081
1094.370 24.50372
1094.852 30.78566
1095.334 45.82765
1095.817 45.81393
1096.299 28.44180
1096.781 14.33286
1097.263 9.640747
1097.745 8.515808
1098.227 13.00638
1098.709 17.62436
1099.191 19.99402
1099.673 19.89417
1100.156 16.71416
1100.638 10.56975
1101.120 4.341248
1101.602 3.474670
1102.084 8.082901
1102.566 9.266998
1103.048 5.856903
1103.530 7.631485
1104.013 23.63376
1104.495 31.55321
1104.977 30.59296
1105.459 26.01323
1105.941 13.07275
1106.423 4.904297
1106.905 8.361282
1107.387 12.25764
1107.870 7.955902
1108.352 1.850128
1108.834 3.940796
1109.316 14.44894
1109.798 22.82626
1110.280 31.25943
1110.762 32.84619
1111.244 20.21933
1111.726 8.259949
1112.208 2.792862
1112.691 2.547073
1113.173 7.810852
1113.655 18.27309
1114.137 23.86841
1114.619 20.68018
1115.101 20.28595
1115.583 24.04216
1116.065 26.88382
1116.548 26.67490
1117.030 26.07350
1117.512 29.00108
1117.994 34.80888
1118.476 36.08897
1118.958 31.72447
1119.440 24.77016
1119.922 10.64052
1120.405 3.298767
1120.887 11.25598
1121.369 23.32365
1121.851 26.30243
1122.333 22.40712
1122.815 26.17574
1123.297 42.14081
1123.779 49.50650
1124.261 46.11372
1124.744 37.15771
1125.226 21.59306
1125.708 8.596848
1126.190 8.903748
1126.672 17.67352
1127.154 20.91859
1127.636 17.63918
1128.118 18.07771
1128.600 23.34100
1129.083 26.63321
1129.565 25.66122
1130.047 21.00630
1130.529 12.24962
1131.011 2.335510
1131.493 0.5467220
1131.975 3.434631
1132.457 10.35400
1132.940 20.06236
1133.422 26.52687
1133.904 28.10954
1134.386 25.86801
1134.868 20.05060
1135.350 13.13150
1135.832 10.87932
1136.314 12.18413
1136.797 12.18674
1137.279 11.36505
1137.761 12.82037
1138.243 17.33791
1138.725 26.83591
1139.207 43.28706
1139.689 57.17136
1140.171 51.71948
1140.653 35.94482
1141.135 32.62500
1141.618 36.18185
1142.100 26.42136
1142.582 4.561157
1143.064 6.092499
1143.546 5.886536
1144.028 20.16719
1144.510 11.44250
1144.992 2.229797
1145.475 5.857132
1145.957 24.37224
1146.439 36.41629
1146.921 39.90694
1147.403 35.33768
1147.885 23.23926
1148.367 13.45010
1148.849 13.94975
1149.332 18.22821
1149.814 24.95732
1150.296 29.71584
1150.778 24.34920
1151.260 14.19638
1151.742 11.16731
1152.224 17.46732
1152.706 24.52615
1153.188 28.67708
1153.671 32.62425
1154.153 39.82382
1154.635 44.87251
1155.117 43.98364
1155.599 38.32196
1156.081 26.75807
1156.563 10.79138
1157.045 3.789444
1157.527 15.60033
1158.010 24.35930
1158.492 22.42305
1158.974 21.63969
1159.456 29.37851
1159.938 38.73413
1160.420 43.41338
1160.902 43.71721
1161.384 40.28674
1161.867 30.42357
1162.349 21.60547
1162.831 12.20201
1163.313 7.129654
1163.795 9.750671
1164.277 13.92007
1164.759 15.33241
1165.241 14.20103
1165.724 10.14534
1166.206 1.973465
1166.688 2.295685
1167.170 13.03583
1167.652 22.63411
1168.134 29.12987
1168.616 31.73390
1169.098 29.14557
1169.580 25.78824
1170.063 30.76385
1170.545 40.97729
1171.027 35.16006
1171.509 14.81604
1171.991 2.443237
1172.473 13.80724
1172.955 14.60599
1173.437 2.747757
1173.919 11.14978
1174.402 15.85219
1174.884 15.22484
1175.366 17.54915
1175.848 20.46382
1176.330 14.56691
1176.812 3.688156
1177.294 4.954422
1177.776 21.14265
1178.259 33.80104
1178.741 29.92641
1179.223 19.98888
1179.705 10.28630
1180.187 3.689606
1180.669 4.763916
1181.151 10.76509
1181.633 20.69739
1182.115 31.06966
1182.598 29.15517
1183.080 5.768967
1183.562 10.22096
1184.044 1.048004
1184.526 14.94987
1185.008 37.79860
1185.490 53.71385
1185.972 42.25378
1186.454 15.39845
1186.937 4.462280
1187.419 15.85019
1187.901 26.13943
1188.383 35.27307
1188.865 38.71274
1189.347 29.27496
1189.829 21.48834
1190.311 24.51991
1190.794 31.49359
1191.276 33.32449
1191.758 30.16399
1192.240 23.31207
1192.722 9.302002
1193.204 4.440506
1193.686 12.30173
1194.168 19.82957
1194.651 22.05302
1195.133 23.28059
1195.615 27.85327
1196.097 33.83693
1196.579 36.19284
1197.061 35.02524
1197.543 31.71823
1198.025 26.35005
1198.507 17.59799
1198.990 6.109192
1199.472 1.631149
1199.954 10.87891
1200.436 23.71239
1200.918 25.62616
1201.400 23.02473
1201.882 26.43958
1202.364 32.38884
1202.846 32.72292
1203.329 28.61313
1203.811 25.65149
1204.293 25.58676
1204.775 23.67834
1205.257 12.54912
1205.739 4.822449
1206.221 15.56427
1206.703 28.18332
1207.186 23.91641
1207.668 13.02357
1208.150 14.47203
1208.632 27.85686
1209.114 34.48537
1209.596 26.50117
1210.078 19.53439
1210.560 13.96443
1211.042 13.46231
1211.525 24.97078
1212.007 36.78506
1212.489 38.10622
1212.971 33.33009
1213.453 33.26636
1213.935 38.89386
1214.417 41.27966
1214.899 40.23967
1215.381 35.65305
1215.864 25.62251
1216.346 20.16495
1216.828 25.82452
1217.310 31.62758
1217.792 22.11726
1218.274 4.035797
1218.756 4.191269
1219.238 19.49232
1219.720 27.94576
1220.203 28.67386
1220.685 26.70209
1221.167 23.74260
1221.649 20.99928
1222.131 19.45052
1222.613 17.47066
1223.095 11.01706
1223.577 4.546921
1224.060 4.348175
1224.542 8.993622
1225.024 19.28857
1225.506 31.06918
1225.988 31.52409
1226.470 16.44116
1226.952 6.253326
1227.434 14.49179
1227.917 25.09171
1228.399 30.21927
1228.881 30.29251
1229.363 21.01346
1229.845 9.863083
1230.327 8.389465
1230.809 16.18877
1231.291 21.02698
1231.773 16.25084
1232.255 23.03004
1232.738 51.27734
1233.220 68.46933
1233.702 61.92166
1234.184 47.37485
1234.666 34.76271
1235.148 25.03148
1235.630 20.10596
1236.112 19.78334
1236.595 23.57031
1237.077 30.92545
1237.559 31.38525
1238.041 24.05690
1238.523 13.81206
1239.005 2.965958
1239.487 2.084244
1239.969 5.827255
1240.452 19.36940
1240.934 33.51193
1241.416 42.38506
1241.898 30.18964
1242.380 8.405991
1242.862 0.1742250
1243.344 5.878922
1243.826 14.75220
1244.308 23.18784
1244.791 27.01677
1245.273 18.65071
1245.755 12.67377
1246.237 19.59058
1246.719 28.06152
1247.201 29.26404
1247.683 25.77171
1248.165 22.22845
1248.647 18.83321
1249.130 16.12308
1249.612 14.76166
1250.094 11.79985
1250.576 4.593231
1251.058 4.180023
1251.540 16.14029
1252.022 28.52835
1252.504 32.02405
1252.987 29.00723
1253.469 22.62206
1253.951 14.04958
1254.433 12.35107
1254.915 15.45213
1255.397 10.82875
1255.879 0.9970250
1256.361 7.246231
1256.844 3.200745
1257.326 3.895462
1257.808 8.928650
1258.290 13.43231
1258.772 21.24557
1259.254 27.14804
1259.736 22.55457
1260.218 14.14563
1260.700 13.38263
1261.182 19.00639
1261.665 18.85193
1262.147 7.730087
1262.629 1.787064
1263.111 9.120590
1263.593 14.68088
1264.075 12.18079
1264.557 11.38416
1265.039 19.99736
1265.522 29.57382
1266.004 27.99185
1266.486 17.64320
1266.968 12.77412
1267.450 13.61504
1267.932 16.08070
1268.414 19.98357
1268.896 22.66129
1269.379 21.75133
1269.861 23.35059
1270.343 27.42241
1270.825 28.93724
1271.307 15.05511
1271.789 0.1098330
1272.271 11.93747
1272.753 34.42470
1273.235 41.39719
1273.718 36.77612
1274.200 36.49899
1274.682 43.03534
1275.164 45.69098
1275.646 38.72017
1276.128 31.49902
1276.610 26.90309
1277.092 22.78952
1277.574 16.31436
1278.057 12.06209
1278.539 16.78618
1279.021 24.01376
1279.503 19.40100
1279.985 3.054138
1280.467 0.1494900
1280.949 10.92047
1281.431 0.0000000E+00
