#Shining_header
#Data type:raman_database
#CAS:Not entered
#Material scientific name:Bellingerite
#Manufacturer:Not entered
#Laser model:Not entered
#Spectrometer model:Not entered
#Testing unit:Not entered
#Test time:Not entered
#Other experimental details:Not entered
#Shining_data
149.9194 0.0000000E+00
150.4015 7.1167000E-02
150.8836 0.6985320
151.3657 1.676834
151.8479 2.419022
152.3300 2.474640
152.8121 1.432648
153.2942 1.797836
153.7763 4.799438
154.2584 7.797592
154.7406 9.310440
155.2227 9.312485
155.7048 8.887314
156.1869 9.271591
156.6690 10.83899
157.1511 11.79820
157.6333 10.76051
158.1154 9.846817
158.5975 11.48360
159.0796 16.24704
159.5617 21.70113
160.0438 24.32040
160.5260 24.00227
161.0081 24.27881
161.4902 26.33119
161.9723 29.56447
162.4544 32.74745
162.9365 35.54749
163.4187 38.06165
163.9008 40.42902
164.3829 42.62535
164.8650 44.72560
165.3471 46.45731
165.8292 47.96888
166.3113 50.32211
166.7935 54.71736
167.2756 59.10855
167.7577 61.85974
168.2398 62.94850
168.7219 63.57738
169.2040 65.02778
169.6862 67.41488
170.1683 68.82663
170.6504 68.40858
171.1325 67.24964
171.6146 66.28466
172.0967 65.73789
172.5789 65.61632
173.0610 66.68784
173.5431 67.94287
174.0252 67.71483
174.5073 65.18658
174.9894 60.55771
175.4716 56.21190
175.9537 51.99012
176.4358 47.72769
176.9179 44.78653
177.4000 42.41235
177.8821 40.06018
178.3643 39.22435
178.8464 38.68872
179.3285 36.50236
179.8106 32.00829
180.2927 26.23087
180.7748 21.77953
181.2570 19.01291
181.7391 17.00983
182.2212 15.87865
182.7033 15.47771
183.1854 15.75750
183.6675 16.82612
184.1497 18.26241
184.6318 18.67176
185.1139 17.91466
185.5960 16.68576
186.0781 14.91817
186.5602 12.80871
187.0423 10.84937
187.5245 9.120949
188.0066 7.894997
188.4887 7.778633
188.9708 9.718651
189.4529 11.13211
189.9350 9.710373
190.4172 5.753922
190.8993 2.515366
191.3814 1.821472
191.8635 2.550949
192.3456 3.036407
192.8277 3.104195
193.3099 2.940857
193.7920 2.886948
194.2741 3.042778
194.7562 2.541901
195.2383 8.4229000E-02
195.7204 3.069016
196.2026 4.806572
196.6847 4.714798
197.1668 3.779900
197.6489 3.662689
198.1310 4.938530
198.6131 5.344162
199.0953 3.213722
199.5774 0.4759520
200.0595 0.9452060
200.5416 0.2175900
201.0237 1.466484
201.5058 1.192230
201.9880 3.121353
202.4701 5.563431
202.9522 3.739906
203.4343 0.3953170
203.9164 1.711243
204.3985 1.314903
204.8807 0.7846150
205.3628 2.226585
205.8449 2.746002
206.3270 2.824707
206.8091 2.041969
207.2912 1.036423
207.7733 0.7150880
208.2555 1.286636
208.7376 2.533478
209.2197 3.662827
209.7018 5.065239
210.1839 5.871880
210.6660 5.494621
211.1482 4.566490
211.6303 3.905388
212.1124 3.919746
212.5945 4.537041
213.0766 5.517578
213.5587 7.589569
214.0409 9.148895
214.5230 9.454773
215.0051 9.067245
215.4872 9.023895
215.9693 9.894470
216.4514 11.39532
216.9336 12.46535
217.4157 12.98125
217.8978 13.35365
218.3799 13.67651
218.8620 13.95443
219.3441 14.25213
219.8263 14.67720
220.3084 15.07739
220.7905 15.00173
221.2726 14.07466
221.7547 13.34428
222.2368 13.59554
222.7190 14.57020
223.2011 15.16150
223.6832 14.69809
224.1653 13.74346
224.6474 13.51447
225.1295 14.42737
225.6117 15.07209
226.0938 14.06263
226.5759 11.64440
227.0580 9.955925
227.5401 10.10835
228.0222 11.21139
228.5043 12.11420
228.9865 12.66858
229.4686 13.02135
229.9507 13.33694
230.4328 13.61338
230.9149 13.73819
231.3970 13.48758
231.8792 13.21088
232.3613 13.17737
232.8434 13.42597
233.3255 13.90394
233.8076 14.92511
234.2897 16.63213
234.7719 17.22306
235.2540 14.83159
235.7361 12.15473
236.2182 11.09490
236.7003 11.86035
237.1824 12.91178
237.6646 12.29192
238.1467 9.537201
238.6288 7.756317
239.1109 8.338646
239.5930 9.308510
240.0751 9.743820
240.5573 9.497437
241.0394 8.879715
241.5215 8.069191
242.0036 6.910507
242.4857 6.191765
242.9678 6.467285
243.4500 6.780914
243.9321 6.425430
244.4142 5.470978
244.8963 4.693504
245.3784 5.164619
245.8605 7.435745
246.3427 8.924561
246.8248 9.305351
247.3069 9.260139
247.7890 8.871681
248.2711 8.260086
248.7532 7.699051
249.2354 7.616547
249.7175 8.282364
250.1996 8.509438
250.6817 7.560333
251.1638 6.844879
251.6459 7.350784
252.1281 8.861931
252.6102 10.23712
253.0923 10.15244
253.5744 8.120621
254.0565 7.283897
254.5386 8.763977
255.0208 10.42545
255.5029 11.41096
255.9850 11.56513
256.4671 11.12868
256.9492 10.33451
257.4313 9.131889
257.9135 8.603760
258.3956 9.253319
258.8777 9.653381
259.3598 9.026009
259.8419 7.876175
260.3240 7.180099
260.8062 7.890663
261.2883 9.906830
261.7704 10.52372
262.2525 9.199905
262.7346 7.773445
263.2167 6.410904
263.6989 5.337257
264.1810 5.217216
264.6631 6.627838
265.1452 9.303062
265.6273 11.04298
266.1094 11.71356
266.5916 11.90988
267.0737 11.88555
267.5558 11.52827
268.0379 10.40305
268.5200 8.080238
269.0021 5.006508
269.4843 3.086014
269.9664 2.764908
270.4485 2.769730
270.9306 3.030273
271.4127 3.335609
271.8948 3.067154
272.3770 1.776978
272.8591 8.2061999E-02
273.3412 0.2304230
273.8233 1.635841
274.3054 2.924309
274.7875 2.265625
275.2697 0.5108950
275.7518 0.7177050
276.2339 0.8050380
276.7160 0.2746050
277.1981 0.1150590
277.6802 0.4274440
278.1623 0.5438390
278.6444 0.1354830
279.1266 0.5605930
279.6087 1.200111
280.0908 1.732407
280.5729 2.053589
281.0550 1.738266
281.5371 0.7373280
282.0193 0.4099810
282.5014 1.820984
282.9835 3.868340
283.4656 5.025780
283.9477 5.030609
284.4298 4.183952
284.9120 2.124123
285.3941 0.9046250
285.8762 2.657150
286.3583 1.853729
286.8404 9.0309002E-02
287.3225 1.563698
287.8047 2.416641
288.2868 2.903923
288.7689 3.170929
289.2510 3.219795
289.7331 3.055267
290.2152 2.531975
290.6974 1.880463
291.1795 1.323845
291.6616 0.8680880
292.1437 0.4381260
292.6258 0.1787720
293.1079 0.7499240
293.5901 0.7178120
294.0722 0.5744930
294.5543 1.816948
295.0364 1.470474
295.5185 0.3453980
296.0006 1.312386
296.4828 0.4214320
296.9649 3.177780
297.4470 3.792831
297.9291 1.219215
298.4112 1.261368
298.8933 0.8298340
299.3755 1.992279
299.8576 3.928391
300.3397 3.472878
300.8218 2.089073
301.3039 1.873772
301.7860 2.973061
302.2682 4.104019
302.7503 4.239891
303.2324 3.781448
303.7145 4.205376
304.1966 6.090584
304.6787 8.522690
305.1609 10.55393
305.6430 12.23858
306.1251 13.93736
306.6072 15.81184
307.0893 17.81122
307.5714 19.85599
308.0536 21.97437
308.5357 24.02708
309.0178 25.89565
309.4999 27.60502
309.9820 29.17538
310.4641 29.76550
310.9463 30.54847
311.4284 33.84311
311.9105 40.20621
312.3926 46.16095
312.8747 49.16480
313.3568 50.21262
313.8390 50.88193
314.3211 51.16852
314.8032 51.49553
315.2853 51.98073
315.7674 52.60596
316.2495 54.56278
316.7317 59.65331
317.2138 65.73709
317.6959 69.43188
318.1780 69.86522
318.6601 69.56379
319.1422 70.01589
319.6243 71.23356
320.1064 73.44443
320.5886 77.36765
321.0707 81.59571
321.5528 84.32324
322.0349 85.47842
322.5170 86.49096
322.9991 88.34291
323.4813 90.64778
323.9634 92.23387
324.4455 92.66572
324.9276 92.81313
325.4097 93.66286
325.8918 95.05668
326.3740 96.14948
326.8561 96.27726
327.3382 96.05035
327.8203 96.75989
328.3024 98.78946
328.7845 100.2586
329.2667 99.28917
329.7488 96.65254
330.2309 94.17561
330.7130 92.24068
331.1951 90.57716
331.6772 88.85038
332.1594 87.06279
332.6415 85.66290
333.1236 85.06639
333.6057 84.93361
334.0878 84.57986
334.5699 84.12418
335.0521 83.22292
335.5342 81.27502
336.0163 78.57619
336.4984 76.31466
336.9805 74.86640
337.4626 74.10870
337.9448 74.12033
338.4269 75.11683
338.9090 75.39903
339.3911 73.94941
339.8732 71.39089
340.3553 68.82355
340.8375 66.42820
341.3196 64.20942
341.8017 62.05624
342.2838 59.98706
342.7659 58.60353
343.2480 58.47713
343.7302 58.77872
344.2123 58.86087
344.6944 58.67480
345.1765 58.09207
345.6586 56.82765
346.1407 55.06140
346.6229 53.90681
347.1050 53.69243
347.5871 53.81529
348.0692 54.37991
348.5513 55.10954
349.0334 54.86978
349.5156 52.80931
349.9977 49.63040
350.4798 47.33876
350.9619 46.01843
351.4440 45.33984
351.9261 45.79543
352.4083 46.49509
352.8904 45.84952
353.3725 43.24976
353.8546 39.87941
354.3367 37.35366
354.8188 35.64156
355.3010 34.89491
355.7831 36.15580
356.2652 37.77549
356.7473 38.38196
357.2294 37.83911
357.7115 36.70072
358.1937 35.25717
358.6758 33.43728
359.1579 32.23780
359.6400 32.20980
360.1221 32.05848
360.6042 31.01920
361.0863 29.48891
361.5685 28.44634
362.0506 28.42285
362.5327 29.05186
363.0148 29.03733
363.4969 27.39840
363.9790 26.39889
364.4612 27.20248
364.9433 28.49588
365.4254 28.52856
365.9075 26.75342
366.3896 24.14665
366.8717 22.22988
367.3539 21.19804
367.8360 20.54509
368.3181 20.54851
368.8002 20.69048
369.2823 20.68673
369.7644 20.48627
370.2466 20.09466
370.7287 19.45088
371.2108 18.51054
371.6929 18.14381
372.1750 18.97643
372.6571 19.66830
373.1393 19.81045
373.6214 19.53983
374.1035 19.05885
374.5856 18.45371
375.0677 17.87482
375.5498 17.85794
376.0320 19.18813
376.5141 19.89885
376.9962 19.33770
377.4783 18.42256
377.9604 17.98982
378.4425 18.22624
378.9247 18.68826
379.4068 18.78544
379.8889 18.44115
380.3710 17.99306
380.8531 17.22388
381.3352 16.54554
381.8174 16.16251
382.2995 16.03610
382.7816 15.96383
383.2637 15.66795
383.7458 15.29195
384.2279 15.95918
384.7101 18.66995
385.1922 20.90323
385.6743 22.06355
386.1564 22.33690
386.6385 21.63139
387.1206 19.71660
387.6028 17.84912
388.0849 18.44408
388.5670 22.20214
389.0491 25.07257
389.5312 26.11726
390.0133 25.91180
390.4955 24.08550
390.9776 20.84016
391.4597 18.18216
391.9418 18.03619
392.4239 19.97903
392.9060 21.56641
393.3882 22.63614
393.8703 23.31165
394.3524 23.58537
394.8345 23.56358
395.3166 23.45026
395.7987 23.30059
396.2809 23.11330
396.7630 23.01775
397.2451 23.04636
397.7272 22.56796
398.2093 20.79815
398.6914 18.64970
399.1736 17.66452
399.6557 18.25536
400.1378 18.78115
400.6199 18.38217
401.1020 17.17483
401.5841 15.30103
402.0662 12.60255
402.5483 9.827576
403.0305 7.694740
403.5126 6.159019
403.9947 5.640450
404.4768 7.893723
404.9589 10.08697
405.4410 8.694435
405.9232 3.985390
406.4053 0.1177060
406.8874 0.1938290
407.3695 3.244953
407.8516 4.104286
408.3337 0.8398020
408.8159 2.049137
409.2980 3.255791
409.7801 3.179909
410.2622 2.184376
410.7443 0.3557970
411.2264 1.591331
411.7086 2.509506
412.1907 1.963097
412.6728 1.335373
413.1549 0.7429200
413.6370 1.8851999E-02
414.1191 1.371174
414.6013 3.115730
415.0834 4.511627
415.5655 4.972488
416.0476 4.530064
416.5297 3.679913
417.0118 1.256100
417.4940 0.2273410
417.9761 0.6552160
418.4582 2.344448
418.9403 2.751427
419.4224 1.107929
419.9045 1.439240
420.3867 2.881962
420.8688 2.800694
421.3509 2.698368
421.8330 2.659134
422.3151 2.596966
422.7972 2.297916
423.2794 1.891941
423.7615 1.823555
424.2436 2.571873
424.7257 3.979065
425.2078 4.983002
425.6899 5.464657
426.1721 5.725956
426.6542 5.644524
427.1363 5.524357
427.6184 5.755844
428.1005 6.489662
428.5826 7.453056
429.0648 8.387177
429.5469 9.298622
430.0290 10.00386
430.5111 10.25671
430.9932 10.52020
431.4753 11.43305
431.9575 12.86591
432.4396 13.75878
432.9217 13.04224
433.4038 11.65684
433.8859 11.18703
434.3680 11.74912
434.8502 12.88416
435.3323 14.73848
435.8144 16.86220
436.2965 18.01158
436.7786 17.40546
437.2607 16.94277
437.7429 17.97589
438.2250 19.89252
438.7071 21.22819
439.1892 21.48536
439.6713 21.29920
440.1534 21.48774
440.6356 22.08089
441.1177 22.99762
441.5998 24.63485
442.0819 26.27682
442.5640 27.27769
443.0461 27.74991
443.5282 28.36655
444.0103 29.61880
444.4925 31.31665
444.9746 32.41706
445.4567 32.43601
445.9388 32.44617
446.4209 32.25352
446.9030 32.25455
447.3852 33.13148
447.8673 34.93230
448.3494 36.69252
448.8315 37.02024
449.3136 35.45275
449.7957 34.79507
450.2779 35.72416
450.7600 36.92903
451.2421 38.53951
451.7242 40.00304
452.2063 40.19183
452.6884 38.22324
453.1706 35.35768
453.6527 34.90538
454.1348 37.88583
454.6169 40.08284
455.0990 39.71245
455.5811 38.64350
456.0633 37.94841
456.5454 37.77787
457.0275 37.99431
457.5096 38.55806
457.9917 39.43042
458.4738 40.61277
458.9560 42.37098
459.4381 43.92491
459.9202 44.25477
460.4023 43.84373
460.8844 43.64568
461.3665 44.01528
461.8487 44.44638
462.3308 43.96271
462.8129 42.93164
463.2950 43.32633
463.7771 46.21948
464.2592 49.50664
464.7414 49.89725
465.2235 46.90438
465.7056 44.90031
466.1877 44.98481
466.6698 45.62242
467.1519 45.86631
467.6341 45.74041
468.1162 45.71745
468.5983 46.15949
469.0804 46.86825
469.5625 47.03139
470.0446 46.13805
470.5268 45.37029
471.0089 44.70237
471.4910 44.17295
471.9731 43.94476
472.4552 43.94651
472.9373 43.73937
473.4195 42.77357
473.9016 41.00782
474.3837 39.91003
474.8658 40.37878
475.3479 40.68830
475.8300 40.01368
476.3122 38.78181
476.7943 37.81006
477.2764 37.57495
477.7585 37.55332
478.2406 36.73174
478.7227 35.03841
479.2049 33.18668
479.6870 31.01356
480.1691 29.00772
480.6512 27.54320
481.1333 26.56311
481.6154 25.75361
482.0976 25.21391
482.5797 24.65287
483.0618 23.34120
483.5439 21.24031
484.0260 19.77232
484.5081 19.95114
484.9902 21.02140
485.4724 21.20600
485.9545 20.12763
486.4366 19.21495
486.9187 19.42493
487.4008 19.89542
487.8829 19.34647
488.3651 17.61973
488.8472 15.56695
489.3293 13.84792
489.8114 12.45372
490.2935 11.71187
490.7756 12.15032
491.2578 12.52038
491.7399 12.33635
492.2220 11.91712
492.7041 11.83855
493.1862 12.27343
493.6683 12.63750
494.1505 11.87936
494.6326 9.425762
495.1147 8.148415
495.5968 9.567154
496.0789 10.69352
496.5610 10.14676
497.0432 8.541920
497.5253 7.159500
498.0074 6.685459
498.4895 6.702469
498.9716 6.560646
499.4537 6.315281
499.9359 5.572460
500.4180 3.597462
500.9001 1.673485
501.3822 0.9531710
501.8643 1.355530
502.3464 1.875397
502.8286 1.934883
503.3107 1.879875
503.7928 2.320690
504.2749 3.276634
504.7570 4.225746
505.2391 5.067463
505.7213 5.584454
506.2034 5.137970
506.6855 3.280476
507.1676 1.631943
507.6497 0.4219400
508.1318 0.2505650
508.6140 5.2363999E-02
509.0961 0.9566570
509.5782 2.122196
510.0603 2.930683
510.5424 3.377277
511.0245 3.289215
511.5067 1.892921
511.9888 0.9014510
512.4709 0.8328320
512.9530 1.189182
513.4351 1.450542
513.9172 1.471199
514.3994 1.413158
514.8815 1.609970
515.3636 2.140213
515.8457 1.793861
516.3278 0.6676060
516.8099 2.320858
517.2921 1.120834
517.7742 1.325874
518.2563 2.357330
518.7384 0.7529140
519.2205 1.334969
519.7026 1.308849
520.1848 0.5411530
520.6669 1.893723
521.1490 2.179359
521.6311 2.013577
522.1132 2.070503
522.5953 2.271400
523.0775 2.075981
523.5596 0.8500020
524.0417 0.3124810
524.5238 0.6367800
525.0059 0.2672160
525.4880 0.5143780
525.9702 1.668579
526.4523 2.689528
526.9344 2.615372
527.4165 0.6588760
527.8986 0.3244590
528.3807 0.3693660
528.8629 1.283089
529.3450 1.682310
529.8271 1.660662
530.3092 1.586964
530.7913 1.651611
531.2734 1.818050
531.7556 2.138134
532.2377 2.877979
532.7198 3.039871
533.2019 1.468800
533.6840 0.1143090
534.1661 0.4237770
534.6483 2.041330
535.1304 3.272419
535.6125 2.901798
536.0946 1.714834
536.5767 1.135033
537.0588 1.191963
537.5410 1.322453
538.0231 1.366110
538.5052 1.321444
538.9873 1.129169
539.4694 0.7300510
539.9515 0.4521260
540.4337 0.6296250
540.9158 0.8352510
541.3979 0.4797210
541.8800 0.3338790
542.3621 0.9512690
542.8442 0.9845500
543.3264 0.4991360
543.8085 0.2923090
544.2906 1.763805
544.7726 3.019365
545.2548 4.019674
545.7369 4.838007
546.2190 5.724873
546.7011 6.496922
547.1832 6.532749
547.6653 5.190603
548.1475 2.926634
548.6296 1.465626
549.1117 0.7498510
549.5938 0.9180340
550.0759 3.401533
550.5580 5.900934
551.0402 6.331701
551.5223 4.619604
552.0044 3.025002
552.4865 3.002089
552.9686 3.908598
553.4507 4.828772
553.9329 5.725214
554.4150 5.972139
554.8971 4.859264
555.3792 3.208626
555.8613 3.325018
556.3434 6.188232
556.8256 7.900215
557.3077 6.617924
557.7898 4.686256
558.2719 4.480875
558.7540 5.833321
559.2361 6.850727
559.7183 6.133099
560.2004 4.222931
560.6825 3.449673
561.1646 4.704987
561.6467 5.678686
562.1288 6.094553
562.6110 6.133163
563.0931 5.700127
563.5752 4.976460
564.0573 4.590761
564.5394 5.207466
565.0215 6.386854
565.5037 6.851852
565.9858 6.416208
566.4679 5.956703
566.9500 5.759293
567.4321 5.721991
567.9142 5.742813
568.3964 5.829315
568.8785 5.796171
569.3606 5.426884
569.8427 5.025623
570.3248 4.912689
570.8069 5.092115
571.2891 5.416769
571.7712 5.807386
572.2533 6.110355
572.7354 5.944113
573.2175 4.959997
573.6996 4.138742
574.1818 3.335211
574.6639 2.708414
575.1460 2.414928
575.6281 2.506777
576.1102 3.230330
576.5923 4.909527
577.0745 6.739922
577.5566 6.874388
578.0387 4.940401
578.5208 4.079111
579.0029 5.901020
579.4850 7.773201
579.9672 7.339922
580.4493 5.122515
580.9314 3.415678
581.4135 3.167614
581.8956 3.666870
582.3777 4.710640
582.8599 6.053555
583.3420 6.476421
583.8241 5.448389
584.3062 3.931784
584.7883 3.159924
585.2704 3.239229
585.7526 3.657980
586.2347 5.397682
586.7168 6.652634
587.1989 5.875118
587.6810 4.181128
588.1631 3.514849
588.6453 4.603464
589.1274 6.296375
589.6095 6.845812
590.0916 6.120686
590.5737 5.448921
591.0558 4.505976
591.5380 4.110065
592.0201 5.248980
592.5022 7.053164
592.9843 7.924536
593.4664 7.319420
593.9485 6.208836
594.4307 5.150698
594.9128 4.185452
595.3949 3.261385
595.8770 2.365681
596.3591 2.004997
596.8412 2.717880
597.3234 4.302498
597.8055 5.473272
598.2876 6.005432
598.7697 6.467651
599.2518 7.177540
599.7339 7.746742
600.2161 7.709702
600.6982 7.129992
601.1803 6.537992
601.6624 6.402897
602.1445 6.581537
602.6266 6.243774
603.1088 4.971632
603.5909 4.215103
604.0730 5.026602
604.5551 6.035315
605.0372 5.985779
605.5193 4.994249
606.0015 4.434029
606.4836 5.649399
606.9657 7.205635
607.4478 6.934078
607.9299 5.218044
608.4120 4.410435
608.8942 5.516825
609.3763 7.220974
609.8584 7.672678
610.3405 6.578030
610.8226 5.634285
611.3047 4.945919
611.7869 4.340282
612.2690 3.441847
612.7511 2.628532
613.2332 2.697348
613.7153 4.003542
614.1974 5.645920
614.6796 6.280804
615.1617 5.822598
615.6438 5.800270
616.1259 6.442976
616.6080 7.128258
617.0901 7.999409
617.5723 8.593884
618.0544 7.934891
618.5365 5.443378
619.0186 3.303564
619.5007 3.010414
619.9828 3.767992
620.4650 4.529835
620.9471 5.114548
621.4292 5.152842
621.9113 4.232431
622.3934 2.775511
622.8755 2.466661
623.3577 4.776947
623.8398 6.125355
624.3219 5.844484
624.8040 5.134491
625.2861 4.738560
625.7682 4.620487
626.2504 4.393238
626.7325 3.820080
627.2145 3.053249
627.6967 2.190372
628.1788 1.197529
628.6609 1.035950
629.1430 2.260292
629.6251 3.784828
630.1072 4.882145
630.5894 5.525860
631.0715 5.454678
631.5536 3.728237
632.0357 2.264633
632.5178 2.326687
632.9999 3.183914
633.4821 3.804787
633.9642 3.923805
634.4463 3.530666
634.9284 2.441998
635.4105 0.7732320
635.8926 0.4417610
636.3748 2.676311
636.8569 4.315838
637.3390 4.576183
637.8211 4.260643
638.3032 3.869389
638.7853 3.501640
639.2675 3.233799
639.7496 3.249809
640.2317 3.320004
640.7138 2.923328
641.1959 2.112209
641.6780 1.739368
642.1602 2.289955
642.6423 2.873135
643.1244 2.148582
643.6065 0.2369500
644.0886 1.592228
644.5707 1.543655
645.0529 0.9107860
645.5350 0.5401460
646.0171 2.134678
646.4992 2.826584
646.9813 2.404369
647.4634 1.846867
647.9456 2.503246
648.4277 4.167171
648.9098 4.124985
649.3919 1.535267
649.8740 0.5537530
650.3561 0.5768090
650.8383 0.2509310
651.3204 0.6126020
651.8025 0.4174960
652.2846 0.2490390
652.7667 0.6229590
653.2488 0.8914640
653.7310 9.3433000E-02
654.2131 1.402733
654.6952 2.245201
655.1773 1.846882
655.6594 0.9168970
656.1415 0.5340770
656.6237 0.7769580
657.1058 1.211445
657.5879 2.451084
658.0700 3.192764
658.5521 2.670197
659.0342 1.641560
659.5164 1.135120
659.9985 1.384224
660.4806 1.602440
660.9627 0.8898580
661.4448 0.2522090
661.9269 0.6015590
662.4091 9.1220997E-02
662.8912 0.5275920
663.3733 0.9149060
663.8554 1.177849
664.3375 1.461479
664.8196 1.629959
665.3018 2.292210
665.7839 4.766739
666.2660 6.459175
666.7481 5.244572
667.2302 2.442867
667.7123 0.3387990
668.1945 0.2233430
668.6766 0.1426010
669.1587 1.036926
669.6408 2.369709
670.1229 2.479420
670.6050 0.7368660
671.0872 0.4704440
671.5693 0.4712980
672.0514 2.434666
672.5335 3.542721
673.0156 3.710751
673.4977 3.410557
673.9799 2.405838
674.4620 1.282986
674.9441 0.6174280
675.4262 0.2561490
675.9083 0.4198570
676.3904 1.679199
676.8726 2.901375
677.3547 3.118259
677.8368 2.194786
678.3189 1.333111
678.8010 0.1295130
679.2831 0.5528070
679.7653 1.652420
680.2474 4.657848
680.7295 6.215706
681.2116 5.965969
681.6937 5.340126
682.1758 4.787758
682.6580 4.516113
683.1401 4.656708
683.6222 5.296562
684.1043 7.027386
684.5864 10.26946
685.0685 13.77030
685.5507 15.25913
686.0328 14.05949
686.5149 13.51450
686.9970 13.84263
687.4791 14.72531
687.9612 16.28041
688.4434 18.18097
688.9255 20.06752
689.4076 21.84312
689.8897 23.65621
690.3718 25.68334
690.8539 27.89699
691.3361 30.38947
691.8182 33.11281
692.3003 35.01305
692.7824 35.35340
693.2645 35.35316
693.7466 37.25772
694.2288 41.95554
694.7109 45.34830
695.1930 45.67414
695.6751 46.77069
696.1572 50.65639
696.6393 55.77261
697.1215 60.01370
697.6036 62.94159
698.0857 65.76402
698.5678 69.60622
699.0499 74.15321
699.5320 78.55457
700.0142 82.79150
700.4963 87.38537
700.9784 92.72469
701.4605 98.00535
701.9426 102.0431
702.4247 104.6446
702.9069 108.3272
703.3890 114.1145
703.8711 119.9082
704.3532 124.8650
704.8353 129.3246
705.3174 133.4955
705.7996 137.5711
706.2817 142.3043
706.7638 148.5837
707.2459 155.8167
707.7280 162.0345
708.2101 167.2224
708.6923 172.3644
709.1743 177.7065
709.6564 183.0770
710.1385 188.6174
710.6207 194.2616
711.1028 198.7058
711.5849 201.6646
712.0670 203.5385
712.5491 203.7215
713.0313 203.4661
713.5134 204.5216
713.9955 206.7611
714.4776 208.3422
714.9597 207.9004
715.4418 205.8005
715.9240 203.0301
716.4061 199.6267
716.8882 196.1036
717.3703 192.7192
717.8524 188.9021
718.3345 184.5164
718.8167 179.4061
719.2988 172.6322
719.7809 162.7935
720.2630 153.2159
720.7451 145.2426
721.2272 137.9125
721.7094 129.7870
722.1915 121.2403
722.6736 114.2997
723.1557 110.3365
723.6378 107.3197
724.1199 100.9767
724.6021 91.05184
725.0842 82.92564
725.5663 77.42202
726.0484 72.86654
726.5305 68.55541
727.0126 64.44427
727.4948 60.52910
727.9769 56.81461
728.4590 53.49339
728.9411 50.69443
729.4232 48.10573
729.9053 45.23449
730.3875 42.37860
730.8696 40.44691
731.3517 39.81185
731.8338 39.57780
732.3159 38.21632
732.7980 35.71164
733.2802 34.19207
733.7623 33.65479
734.2444 34.19491
734.7265 36.95956
735.2086 40.03085
735.6907 40.34006
736.1729 37.62238
736.6550 35.95445
737.1371 36.98117
737.6192 38.44579
738.1013 38.83460
738.5834 38.79617
739.0656 39.38470
739.5477 40.88464
740.0298 43.07596
740.5119 46.03264
740.9940 49.35210
741.4761 51.06342
741.9583 50.75242
742.4404 51.21207
742.9225 53.42354
743.4046 56.26614
743.8867 58.78212
744.3688 61.00554
744.8510 63.08714
745.3331 64.77174
745.8152 66.65298
746.2973 68.98079
746.7794 71.56241
747.2615 73.96921
747.7437 76.38772
748.2258 79.74304
748.7079 84.71780
749.1900 90.27724
749.6721 94.24015
750.1542 96.65441
750.6364 100.0841
751.1185 105.0118
751.6006 110.3397
752.0827 115.4304
752.5648 120.4609
753.0469 126.0593
753.5291 132.6284
754.0112 138.6295
754.4933 143.2342
754.9754 147.8635
755.4575 153.2258
755.9396 159.2938
756.4218 166.1164
756.9039 173.6809
757.3860 181.2542
757.8681 187.6986
758.3502 193.5276
758.8323 200.6780
759.3145 209.2357
759.7966 217.6318
760.2787 225.4362
760.7608 232.5337
761.2429 238.6645
761.7250 243.7418
762.2072 248.9816
762.6893 254.7699
763.1714 260.1926
763.6535 265.4148
764.1356 269.9027
764.6177 273.1235
765.0999 275.1263
765.5820 276.4838
766.0641 277.7478
766.5462 278.0831
767.0283 275.9226
767.5104 271.8371
767.9926 268.1199
768.4747 265.1569
768.9568 261.9424
769.4389 257.8059
769.9210 252.8639
770.4031 247.5417
770.8853 240.8975
771.3674 235.6947
771.8495 232.8282
772.3316 230.3727
772.8137 227.3330
773.2958 224.3014
773.7780 222.2432
774.2601 221.3932
774.7422 221.1448
775.2243 221.0504
775.7064 221.5511
776.1885 223.4441
776.6707 226.2236
777.1528 228.2660
777.6349 229.0486
778.1170 229.6597
778.5991 231.4080
779.0812 234.2380
779.5634 237.1696
780.0455 240.9464
780.5276 243.0555
781.0097 242.0202
781.4918 239.7872
781.9739 237.3617
782.4561 234.9864
782.9382 233.7135
783.4203 234.9380
783.9024 235.6318
784.3845 234.0448
784.8666 231.2355
785.3488 228.3436
785.8309 225.3711
786.3130 221.8977
786.7951 217.7438
787.2772 213.1205
787.7593 208.6091
788.2415 204.2019
788.7236 198.3281
789.2057 190.5473
789.6878 182.5630
790.1699 174.5771
790.6520 167.3975
791.1342 162.8121
791.6162 161.5301
792.0983 158.4508
792.5804 151.5018
793.0626 144.7393
793.5447 139.9384
794.0268 136.0811
794.5089 131.9653
794.9910 127.4468
795.4731 123.0051
795.9553 119.1697
796.4374 115.3941
796.9195 110.4148
797.4016 104.6425
797.8837 100.1134
798.3658 97.20332
798.8480 95.04302
799.3301 93.31153
799.8122 91.40754
800.2943 87.24123
800.7764 78.82854
801.2585 72.41456
801.7407 69.21922
802.2228 66.84242
802.7049 64.98483
803.1870 63.19044
803.6691 60.89538
804.1512 58.02150
804.6334 54.89433
805.1155 51.27378
805.5976 47.83467
806.0797 45.57652
806.5618 43.90928
807.0439 41.23545
807.5261 37.31129
808.0082 33.77250
808.4903 32.31217
808.9724 32.29420
809.4545 31.16090
809.9366 28.64224
810.4188 26.90889
810.9009 26.80384
811.3830 26.64930
811.8651 24.96198
812.3472 22.26022
812.8293 20.41296
813.3115 19.84833
813.7936 19.23823
814.2757 18.05678
814.7578 17.12299
815.2399 17.15654
815.7220 17.70417
816.2042 18.08950
816.6863 18.11296
817.1684 17.76397
817.6505 16.59532
818.1326 15.26626
818.6147 15.50198
819.0969 16.87576
819.5790 16.78467
820.0611 14.43328
820.5432 11.74397
821.0253 10.58982
821.5074 10.71975
821.9896 10.50346
822.4717 9.895973
822.9538 9.013519
823.4359 7.488327
823.9180 6.107037
824.4001 5.288952
824.8823 4.921944
825.3644 4.897667
825.8465 5.379955
826.3286 5.499592
826.8107 4.633904
827.2928 3.525742
827.7750 2.616188
828.2571 1.992378
828.7392 1.917557
829.2213 2.368633
829.7034 2.574997
830.1855 1.567242
830.6677 4.5952000E-02
831.1498 0.2096480
831.6319 0.9778630
832.1140 0.8353540
832.5961 1.536308
833.0782 3.916775
833.5604 4.442638
834.0425 3.533276
834.5246 3.042706
835.0067 3.370502
835.4888 3.557995
835.9709 3.446388
836.4531 3.342369
836.9352 3.702259
837.4173 4.012787
837.8994 3.298012
838.3815 1.362453
838.8636 0.1697580
839.3458 0.5142670
839.8279 6.0157999E-02
840.3100 1.227436
840.7921 2.920437
841.2742 4.476067
841.7563 5.639942
842.2385 5.757013
842.7206 4.069195
843.2027 1.557468
843.6848 0.9350550
844.1669 2.248230
844.6490 2.930273
845.1312 2.473673
845.6133 2.106728
846.0954 2.892172
846.5775 3.991676
847.0596 3.342960
847.5417 9.2220001E-02
848.0239 2.021431
848.5060 1.424316
848.9881 0.6268160
849.4702 0.1530460
849.9523 1.9050000E-03
850.4344 0.4028840
850.9166 1.184448
851.3987 1.387789
851.8808 5.1135998E-02
852.3629 1.356579
852.8450 0.6483100
853.3271 0.9920410
853.8093 1.814619
854.2914 1.698877
854.7735 1.366142
855.2556 1.200584
855.7377 1.182455
856.2198 1.097683
856.7020 0.8614350
857.1841 1.045967
857.6662 1.750740
858.1483 2.488081
858.6304 3.106512
859.1125 3.646830
859.5947 4.269264
860.0768 4.978233
860.5589 4.900465
861.0410 3.144068
861.5231 1.960882
862.0052 1.713593
862.4874 1.855074
862.9695 2.033751
863.4516 2.332205
863.9337 3.099277
864.4158 4.559931
864.8979 5.773558
865.3801 5.930965
865.8622 5.720343
866.3443 5.816065
866.8264 6.180191
867.3085 6.751648
867.7906 7.441423
868.2728 7.745615
868.7549 7.056072
869.2370 5.804249
869.7191 5.305662
870.2012 5.554632
870.6833 5.585745
871.1655 5.188269
871.6476 4.764538
872.1297 4.465712
872.6118 4.474499
873.0939 5.388672
873.5760 7.981098
874.0581 9.187330
874.5402 7.639854
875.0223 6.332571
875.5045 6.172173
875.9866 6.563776
876.4687 7.023933
876.9508 7.474619
877.4329 7.781052
877.9150 7.849909
878.3972 7.824194
878.8793 7.595352
879.3614 7.437208
879.8435 7.925051
880.3256 8.765017
880.8077 8.937986
881.2899 7.976852
881.7720 6.809778
882.2541 6.575512
882.7362 6.991766
883.2183 7.147930
883.7004 7.083925
884.1826 7.433378
884.6647 8.434471
885.1468 9.437643
885.6289 9.812086
886.1110 9.642696
886.5931 9.354458
887.0753 8.997543
887.5574 8.336573
888.0395 6.707863
888.5216 5.722700
889.0037 6.835135
889.4858 8.922070
889.9680 10.21765
890.4501 10.65017
890.9322 10.09182
891.4143 7.273527
891.8964 5.267818
892.3785 5.937841
892.8607 7.529188
893.3428 8.410652
893.8249 8.447279
894.3070 8.088356
894.7891 7.367865
895.2712 6.560038
895.7534 6.019192
896.2355 5.908422
896.7176 6.526905
897.1997 7.626095
897.6818 8.611217
898.1639 9.179461
898.6461 9.136078
899.1282 8.025923
899.6103 6.319738
900.0924 6.384012
900.5745 8.455553
901.0566 9.608624
901.5388 9.026739
902.0209 7.568075
902.5030 5.590256
902.9851 3.729231
903.4672 3.739717
903.9493 6.733343
904.4315 8.149691
904.9136 6.804825
905.3957 5.818430
905.8778 6.345388
906.3599 7.133064
906.8420 6.828182
907.3242 5.554968
907.8063 4.755863
908.2884 5.269356
908.7705 5.715300
909.2526 5.583494
909.7347 5.024813
910.2169 3.674339
910.6990 2.298405
911.1811 2.688643
911.6632 5.306931
912.1453 7.164480
912.6274 4.518091
913.1096 0.4439700
913.5917 0.2030450
914.0738 1.628733
914.5559 3.237268
915.0380 4.022671
915.5201 4.334942
916.0023 4.355829
916.4844 4.259995
916.9665 4.700495
917.4486 5.657694
917.9307 4.932394
918.4128 1.963114
918.8950 0.1058880
919.3771 0.9801690
919.8592 2.931393
920.3413 3.996914
920.8234 4.196590
921.3055 4.040998
921.7877 3.084391
922.2698 2.601120
922.7519 2.847879
923.2340 3.430962
923.7161 4.488979
924.1982 5.635929
924.6804 6.115509
925.1625 5.611729
925.6446 5.500206
926.1267 6.661835
926.6088 7.533974
927.0909 7.213230
927.5731 6.363520
928.0552 5.543573
928.5373 4.949821
929.0194 4.900679
929.5015 5.722239
929.9836 6.456469
930.4658 6.267313
930.9479 5.525707
931.4300 4.404535
931.9121 3.198423
932.3942 2.810440
932.8763 3.439499
933.3585 4.212694
933.8406 4.351267
934.3227 4.024368
934.8048 3.442245
935.2869 2.688595
935.7690 2.712849
936.2512 3.684303
936.7333 4.474754
937.2154 4.473669
937.6975 3.927366
938.1796 3.097473
938.6617 1.928928
939.1439 1.927668
939.6260 3.799953
940.1081 4.824762
940.5902 3.810198
941.0723 2.638910
941.5544 3.089622
942.0366 4.531279
942.5187 4.634342
943.0008 2.304985
943.4829 1.324743
943.9650 3.110081
944.4471 4.737745
944.9293 5.159729
945.4114 4.850395
945.8935 4.115646
946.3756 3.107294
946.8577 2.325085
947.3398 1.766159
947.8220 1.702103
948.3041 2.851423
948.7862 4.052105
949.2683 4.256685
949.7504 3.655771
950.2325 2.756784
950.7147 1.739149
951.1968 0.7658140
951.6789 0.5531710
952.1610 1.209621
952.6431 0.9920480
953.1252 4.516064
953.6074 5.990793
954.0895 5.249378
954.5716 3.898270
955.0537 2.726120
955.5358 2.052509
956.0179 2.690882
956.5000 4.197765
956.9821 4.311487
957.4642 3.099636
957.9464 2.367632
958.4285 2.561691
958.9106 3.040670
959.3927 3.337660
959.8748 3.535976
960.3569 3.868727
960.8391 4.383650
961.3212 4.814575
961.8033 5.465084
962.2854 5.063063
962.7675 2.276329
963.2496 0.3673760
963.7318 8.5032001E-02
964.2139 3.120657
964.6960 4.853140
965.1781 4.603870
965.6602 4.140398
966.1423 2.956739
966.6245 2.190367
967.1066 2.668283
967.5887 3.598961
968.0708 3.931332
968.5529 3.631392
969.0350 3.580091
969.5172 4.575466
969.9993 5.014967
970.4814 3.825850
970.9635 2.354446
971.4456 1.610287
971.9277 1.576582
972.4099 1.952877
972.8920 2.641144
973.3741 3.070854
973.8562 2.637033
974.3383 2.121834
974.8204 2.338779
975.3026 2.748932
975.7847 2.370604
976.2668 1.425219
976.7489 1.106718
977.2310 2.056990
977.7131 3.090588
978.1953 2.783352
978.6774 1.874531
979.1595 1.614557
979.6416 1.852882
980.1237 2.289711
980.6058 2.756672
981.0880 2.462938
981.5701 0.7982500
982.0522 1.052094
982.5343 0.6357520
983.0164 1.075187
983.4985 1.022065
983.9807 0.5492590
984.4628 0.4180390
984.9449 2.566673
985.4270 4.649773
985.9091 4.766005
986.3912 3.576811
986.8734 2.880112
987.3555 2.739313
987.8376 2.504566
988.3197 2.023186
988.8018 2.047638
989.2839 3.113077
989.7661 4.222971
990.2482 4.183767
990.7303 3.214577
991.2124 2.937294
991.6945 3.825525
992.1766 4.261086
992.6588 3.795280
993.1409 3.450586
993.6230 4.059984
994.1051 4.757715
994.5872 4.220501
995.0693 2.470589
995.5515 1.222996
996.0336 0.7880060
996.5157 0.4345420
996.9978 1.0212000E-02
997.4799 0.2952900
997.9620 0.2740100
998.4442 4.1885000E-02
998.9263 0.2955130
999.4084 0.7297760
999.8905 1.110750
1000.373 1.274471
1000.855 1.536190
1001.337 2.385324
1001.819 3.043287
1002.301 2.493986
1002.783 1.380932
1003.265 1.040297
1003.747 1.776964
1004.230 2.622011
1004.712 3.480911
1005.194 3.846846
1005.676 2.962431
1006.158 1.716682
1006.640 1.047762
1007.122 0.9532590
1007.604 1.130096
1008.086 1.469158
1008.569 1.858189
1009.051 1.976105
1009.533 2.156223
1010.015 3.679609
1010.497 5.626711
1010.979 5.868408
1011.461 4.517237
1011.943 3.025621
1012.426 2.084797
1012.908 1.713287
1013.390 2.301331
1013.872 3.263536
1014.354 3.150988
1014.836 2.529041
1015.318 3.654112
1015.800 6.436245
1016.282 7.598734
1016.765 5.202951
1017.247 1.780365
1017.729 0.9399450
1018.211 2.016964
1018.693 3.009182
1019.175 3.804342
1019.657 3.454449
1020.139 1.830927
1020.622 0.6945760
1021.104 1.246367
1021.586 0.4717160
1022.068 2.467251
1022.550 1.304993
1023.032 1.644888
1023.514 3.525291
1023.996 4.297741
1024.478 3.222157
1024.961 2.022163
1025.443 1.960646
1025.925 2.531380
1026.407 2.549870
1026.889 1.968565
1027.371 1.890541
1027.853 2.406120
1028.335 2.921122
1028.818 3.312664
1029.300 3.612032
1029.782 3.957249
1030.264 4.049479
1030.746 2.804384
1031.228 3.233903
1031.710 3.880733
1032.192 2.710623
1032.674 3.157916
1033.156 2.557287
1033.639 2.665542
1034.121 1.567876
1034.603 0.9501490
1035.085 0.6262490
1035.567 0.6616010
1036.049 0.7465690
1036.531 0.9627700
1037.013 1.037570
1037.496 0.4935600
1037.978 0.3689150
1038.460 1.934981
1038.942 4.395287
1039.424 5.011917
1039.906 2.759588
1040.388 1.675684
1040.870 3.210534
1041.353 3.712312
1041.835 0.6533440
1042.317 2.213942
1042.799 1.169869
1043.281 2.333809
1043.763 3.879240
1044.245 2.361739
1044.727 2.088169
1045.209 4.793818
1045.692 6.686129
1046.174 6.260414
1046.656 5.088852
1047.138 4.270535
1047.620 3.723868
1048.102 3.086184
1048.584 2.290928
1049.066 1.551955
1049.548 0.3790120
1050.031 5.3658001E-02
1050.513 0.8927900
1050.995 2.485014
1051.477 5.155259
1051.959 7.803711
1052.441 7.473913
1052.923 2.922450
1053.405 0.3018520
1053.888 0.4139330
1054.370 0.1850230
1054.852 1.150930
1055.334 1.966610
1055.816 2.078098
1056.298 1.771595
1056.780 1.774385
1057.262 2.274450
1057.745 2.598095
1058.227 2.586770
1058.709 2.321243
1059.191 1.479742
1059.673 0.7123370
1060.155 0.3429780
1060.637 0.5450570
1061.119 1.894655
1061.601 4.628965
1062.083 6.409048
1062.566 5.848626
1063.048 4.938652
1063.530 4.471512
1064.012 4.102873
1064.494 3.715434
1064.976 3.117035
1065.458 1.678394
1065.940 0.7184770
1066.423 2.040795
1066.905 0.4590640
1067.387 1.008314
1067.869 0.6702010
1068.351 7.2476998E-02
1068.833 0.2255060
1069.315 0.1970460
1069.797 1.206470
1070.280 2.723819
1070.762 3.657320
1071.244 3.028187
1071.726 2.416242
1072.208 2.652954
1072.690 3.096344
1073.172 3.433811
1073.654 3.536627
1074.136 2.896511
1074.619 1.637529
1075.101 1.012777
1075.583 2.024064
1076.065 2.928041
1076.547 2.748350
1077.029 2.278635
1077.511 2.122587
1077.993 2.145976
1078.475 1.785572
1078.958 1.143271
1079.440 1.050150
1079.922 2.198775
1080.404 3.056594
1080.886 2.363015
1081.368 1.681111
1081.850 2.530709
1082.332 3.832870
1082.814 4.055157
1083.297 3.210115
1083.779 2.264866
1084.261 1.343918
1084.743 0.9896730
1085.225 2.074740
1085.707 3.111380
1086.189 3.116252
1086.671 2.624340
1087.154 2.093810
1087.636 1.704190
1088.118 1.793194
1088.600 2.591635
1089.082 3.062720
1089.564 2.347574
1090.046 1.707040
1090.528 1.831822
1091.010 2.388050
1091.493 3.230192
1091.975 4.156221
1092.457 4.895284
1092.939 5.427506
1093.421 5.244441
1093.903 3.567188
1094.385 1.901406
1094.867 0.2267970
1095.349 0.4970420
1095.832 1.506310
1096.314 4.656319
1096.796 5.998331
1097.278 5.047110
1097.760 3.709110
1098.242 1.654650
1098.724 0.5864650
1099.206 2.131780
1099.689 3.730268
1100.171 3.105291
1100.653 1.697653
1101.135 1.647026
1101.617 2.931780
1102.099 3.523532
1102.581 2.328022
1103.063 1.472061
1103.546 1.553896
1104.028 1.987036
1104.510 2.824812
1104.992 3.568149
1105.474 3.536687
1105.956 2.886626
1106.438 2.513711
1106.920 2.737936
1107.402 2.760144
1107.885 1.772317
1108.367 1.440543
1108.849 3.147487
1109.331 5.074776
1109.813 5.656403
1110.295 5.174265
1110.777 4.471867
1111.259 3.448131
1111.741 2.808084
1112.224 2.665179
1112.706 2.857944
1113.188 4.164606
1113.670 4.969297
1114.152 3.570251
1114.634 1.268360
1115.116 0.3905590
1115.598 1.043943
1116.081 1.961170
1116.563 3.596128
1117.045 4.675334
1117.527 5.002370
1118.009 4.847429
1118.491 3.863153
1118.973 2.946888
1119.455 3.464575
1119.938 3.146030
1120.420 3.388946
1120.902 4.466507
1121.384 4.295650
1121.866 6.411642
1122.348 7.340150
1122.830 5.343769
1123.312 2.711586
1123.794 1.380781
1124.276 1.082145
1124.759 1.346619
1125.241 2.167565
1125.723 3.215408
1126.205 4.814447
1126.687 5.241129
1127.169 3.829283
1127.651 2.143590
1128.133 1.168597
1128.616 0.7166390
1129.098 0.5179040
1129.580 0.5472190
1130.062 0.1965890
1130.544 0.4914090
1131.026 0.4967500
1131.508 0.9056900
1131.990 2.013937
1132.473 2.051924
1132.955 1.785153
1133.437 2.212848
1133.919 2.913243
1134.401 2.089393
1134.883 4.0885001E-02
1135.365 0.8145760
1135.847 0.1008740
1136.329 1.266829
1136.812 2.998383
1137.294 4.089672
1137.776 3.628462
1138.258 4.886387
1138.740 3.519573
1139.222 5.389133
1139.704 5.808884
1140.186 5.027550
1140.668 4.246929
1141.151 3.706548
1141.633 3.313410
1142.115 3.018801
1142.597 2.446336
1143.079 0.7353340
1143.561 1.126215
1144.043 1.390062
1144.525 0.6041980
1145.008 0.3547920
1145.490 1.273371
1145.972 2.008252
1146.454 2.496357
1146.936 2.597554
1147.418 2.042775
1147.900 1.453529
1148.382 1.329797
1148.865 1.577908
1149.347 2.450812
1149.829 3.438926
1150.311 3.532515
1150.793 2.825936
1151.275 2.382040
1151.757 2.686355
1152.239 2.949061
1152.721 2.795450
1153.203 2.334373
1153.686 1.015190
1154.168 5.6414999E-02
1154.650 1.520873
1155.132 4.136206
1155.614 4.780928
1156.096 2.862612
1156.578 1.168680
1157.060 0.2753700
1157.543 3.3785000E-02
1158.025 0.9833940
1158.507 1.922709
1158.989 2.236017
1159.471 2.092570
1159.953 1.578408
1160.435 0.7856090
1160.917 0.2544160
1161.400 8.1573002E-02
1161.882 6.1370000E-02
1162.364 1.116412
1162.846 1.983603
1163.328 2.364435
1163.810 2.481155
1164.292 2.310235
1164.774 2.138505
1165.256 2.717615
1165.739 2.414973
1166.221 2.238276
1166.703 2.674602
1167.185 1.961391
1167.667 2.768749
1168.149 3.626858
1168.631 3.846260
1169.113 3.944309
1169.595 4.589294
1170.078 5.450112
1170.560 5.317513
1171.042 4.213924
1171.524 2.752935
1172.006 1.001122
1172.488 0.2113480
1172.970 0.6500970
1173.452 0.6966630
1173.934 0.5846880
1174.417 0.3743980
1174.899 0.2075610
1175.381 2.1509999E-02
1175.863 0.5969630
1176.345 1.475664
1176.827 2.897885
1177.309 4.537084
1177.791 4.843367
1178.274 3.442899
1178.756 2.116030
1179.238 2.270804
1179.720 1.719734
1180.202 2.692145
1180.684 2.453687
1181.166 3.483094
1181.648 4.995743
1182.130 5.667700
1182.613 5.355446
1183.095 4.300065
1183.577 2.439383
1184.059 1.224263
1184.541 1.830595
1185.023 2.786085
1185.505 3.553516
1185.987 3.979263
1186.469 3.720502
1186.952 3.217821
1187.434 3.461468
1187.916 2.692370
1188.398 4.362371
1188.880 1.781336
1189.362 0.2670770
1189.844 0.5011930
1190.326 1.364024
1190.809 3.191000
1191.291 4.697531
1191.773 4.504597
1192.255 3.422501
1192.737 3.460244
1193.219 4.738966
1193.701 5.469429
1194.183 5.649683
1194.666 4.856978
1195.148 2.551336
1195.630 1.556438
1196.112 3.490908
1196.594 5.777125
1197.076 5.503719
1197.558 3.636786
1198.040 2.979214
1198.522 3.373884
1199.005 3.501125
1199.487 3.372517
1199.969 3.490749
1200.451 3.943245
1200.933 4.483924
1201.415 4.904610
1201.897 5.161911
1202.379 5.100050
1202.861 4.981066
1203.344 5.507582
1203.826 6.061068
1204.308 5.271172
1204.790 3.637882
1205.272 2.656601
1205.754 2.548041
1206.236 2.241374
1206.718 0.9854610
1207.201 0.3138400
1207.683 1.880707
1208.165 3.525806
1208.647 3.834805
1209.129 3.457556
1209.611 2.556341
1210.093 1.728694
1210.575 2.475850
1211.057 5.058835
1211.540 6.060850
1212.022 3.381602
1212.504 1.623841
1212.986 1.667284
1213.468 2.256201
1213.950 3.466832
1214.432 4.407412
1214.914 4.016659
1215.396 2.924291
1215.879 2.960404
1216.361 4.264345
1216.843 4.745552
1217.325 4.274031
1217.807 3.856940
1218.289 3.652721
1218.771 3.423065
1219.253 3.027531
1219.736 2.796753
1220.218 3.117741
1220.700 3.698383
1221.182 3.694731
1221.664 3.197835
1222.146 2.496100
1222.628 1.755216
1223.110 1.432058
1223.593 1.572620
1224.075 1.981521
1224.557 2.568559
1225.039 3.209127
1225.521 3.956336
1226.003 4.522321
1226.485 4.501510
1226.967 4.279614
1227.449 4.581200
1227.932 4.776720
1228.414 3.199413
1228.896 0.4108100
1229.378 0.2265930
1229.860 2.838384
1230.342 4.705463
1230.824 2.993200
1231.306 1.880417
1231.788 3.446364
1232.271 4.854935
1232.753 4.031406
1233.235 2.552704
1233.717 2.702287
1234.199 4.090956
1234.681 4.020342
1235.163 2.022774
1235.645 0.8576140
1236.128 0.6821050
1236.610 0.5856560
1237.092 0.3220100
1237.574 0.4653280
1238.056 1.388352
1238.538 2.635948
1239.020 3.797411
1239.502 4.582022
1239.984 3.953929
1240.467 2.445543
1240.949 1.597229
1241.431 1.308837
1241.913 0.6171260
1242.395 0.4482320
1242.877 0.3751990
1243.359 1.749044
1243.841 3.399635
1244.323 1.962642
1244.806 0.2681450
1245.288 0.3324020
1245.770 1.197556
1246.252 2.454878
1246.734 3.556309
1247.216 3.588719
1247.698 2.650773
1248.180 1.992636
1248.662 1.743079
1249.145 1.887278
1249.627 2.388456
1250.109 3.389643
1250.591 5.444772
1251.073 7.058783
1251.555 7.328285
1252.037 6.755865
1252.519 5.871448
1253.002 4.871716
1253.484 5.049797
1253.966 3.623442
1254.448 5.273350
1254.930 1.970336
1255.412 5.5257998E-02
1255.894 0.2587020
1256.376 1.060208
1256.859 1.652999
1257.341 1.992486
1257.823 1.876087
1258.305 1.657089
1258.787 2.086252
1259.269 2.610931
1259.751 2.330328
1260.233 1.730462
1260.715 1.813229
1261.198 2.533316
1261.680 3.029898
1262.162 2.976229
1262.644 3.327329
1263.126 5.228201
1263.608 6.294979
1264.090 4.946703
1264.572 3.549218
1265.054 3.627592
1265.537 4.345753
1266.019 4.743742
1266.501 4.960283
1266.983 5.324096
1267.465 5.910295
1267.947 5.641535
1268.429 4.410166
1268.911 3.620895
1269.394 3.491779
1269.876 3.436098
1270.358 3.208821
1270.840 2.927420
1271.322 2.585200
1271.804 2.472352
1272.286 2.833662
1272.768 3.510023
1273.250 4.468206
1273.733 5.412975
1274.215 6.048603
1274.697 6.164536
1275.179 4.992163
1275.661 2.553963
1276.143 1.322645
1276.625 3.450802
1277.107 4.546061
1277.589 1.771448
1278.072 0.5148150
1278.554 0.3330340
1279.036 1.087854
1279.518 3.542310
1280.000 5.922014
1280.482 6.119989
1280.964 4.385261
1281.446 3.867277
1281.929 4.925288
1282.411 4.020184
1282.893 1.731318
1283.375 0.8408440
1283.857 0.8012880
1284.339 1.044551
1284.821 1.577584
1285.303 1.671099
1285.786 1.143869
1286.268 0.0000000E+00
