#Shining_header
#Data type:raman_database
#CAS:Not entered
#Material scientific name:Erythrite
#Manufacturer:Not entered
#Laser model:Not entered
#Spectrometer model:Not entered
#Testing unit:Not entered
#Test time:Not entered
#Other experimental details:Not entered
#Shining_data
93.48840 0.0000000E+00
93.97052 7.039978
94.45264 6.800903
94.93475 4.753998
95.41687 3.281250
95.89898 4.397797
96.38110 5.647064
96.86321 6.021576
97.34533 4.819458
97.82745 1.476929
98.30956 0.2831730
98.79168 0.1268920
99.27380 1.234375
99.75591 2.136932
100.2380 2.752167
100.7201 3.370758
101.2023 4.684174
101.6844 6.649353
102.1665 7.754822
102.6486 7.243805
103.1307 5.784851
103.6128 4.617767
104.0950 3.664124
104.5771 3.258545
105.0592 3.569489
105.5413 4.167145
106.0234 4.794952
106.5055 5.565369
106.9877 6.561584
107.4698 8.102051
107.9519 11.07980
108.4340 13.44620
108.9161 14.73126
109.3982 14.89450
109.8804 14.15570
110.3625 11.89352
110.8446 7.328522
111.3267 5.013580
111.8088 5.617645
112.2909 7.053894
112.7731 9.322479
113.2552 12.24164
113.7373 15.79178
114.2194 20.59181
114.7015 26.20996
115.1836 31.55275
115.6658 36.25743
116.1479 40.48590
116.6300 44.35863
117.1121 48.31068
117.5942 52.46494
118.0763 56.99840
118.5584 61.64316
119.0406 67.06589
119.5227 74.16800
120.0048 82.25771
120.4869 89.70795
120.9690 96.31552
121.4511 101.2377
121.9333 103.7921
122.4154 104.3080
122.8975 101.9626
123.3796 95.13174
123.8617 83.36661
124.3438 71.15543
124.8260 60.12167
125.3081 49.91403
125.7902 40.16321
126.2723 30.60532
126.7544 21.74979
127.2365 14.97446
127.7187 11.05739
128.2008 8.117859
128.6829 5.477173
129.1650 3.259995
129.6471 1.738159
130.1292 1.185211
130.6114 0.3323940
131.0935 0.2823652
131.5756 0.2696840
132.0577 0.7793120
132.5398 1.433243
133.0219 1.815720
133.5041 2.290680
133.9862 3.245392
134.4683 4.869751
134.9504 5.863678
135.4325 6.202530
135.9146 6.101318
136.3968 5.561478
136.8789 4.644699
137.3610 3.556763
137.8431 2.545914
138.3252 1.664444
138.8073 0.4711910
139.2895 1.161621
139.7716 3.048996
140.2537 5.224167
140.7358 7.847107
141.2179 10.10527
141.7000 10.69067
142.1821 9.787140
142.6643 8.659409
143.1464 7.728210
143.6285 6.957855
144.1106 6.197693
144.5927 5.271606
145.0748 4.506454
145.5570 4.072693
146.0391 3.965942
146.5212 4.249039
147.0033 5.181366
147.4854 6.864014
147.9675 8.210556
148.4497 8.397537
148.9318 8.582001
149.4139 9.438736
149.8960 11.09747
150.3781 13.18130
150.8602 15.05319
151.3424 17.74318
151.8245 21.05984
152.3066 25.00722
152.7887 29.52281
153.2708 34.60515
153.7529 40.24165
154.2351 46.39334
154.7172 52.93069
155.1993 59.48657
155.6814 66.99828
156.1635 75.93945
156.6456 85.74319
157.1278 95.77225
157.6099 105.7449
158.0920 115.5829
158.5741 124.9044
159.0562 135.5893
159.5383 143.8674
160.0205 149.3640
160.5026 151.7666
160.9847 150.1179
161.4668 143.3919
161.9489 132.2516
162.4310 120.9014
162.9131 108.5064
163.3953 96.74864
163.8774 86.54651
164.3595 77.85239
164.8416 70.47150
165.3237 64.69508
165.8058 60.19305
166.2880 55.98727
166.7701 51.94237
167.2522 48.13728
167.7343 44.71416
168.2164 41.70412
168.6985 38.84969
169.1807 36.05237
169.6628 33.37492
170.1449 30.89008
170.6270 28.68597
171.1091 26.66666
171.5912 24.62622
172.0734 22.54382
172.5555 20.48280
173.0376 18.25490
173.5197 16.08163
174.0018 14.29575
174.4839 13.17708
174.9661 12.60851
175.4482 11.87152
175.9303 10.69147
176.4124 9.639252
176.8945 8.922073
177.3766 8.432587
177.8588 7.964478
178.3409 7.335342
178.8230 6.540161
179.3051 6.106796
179.7872 6.292603
180.2693 6.581589
180.7515 6.865952
181.2336 7.132599
181.7157 7.405518
182.1978 7.709564
182.6799 8.052963
183.1620 8.312576
183.6441 8.181396
184.1263 8.202194
184.6084 8.696198
185.0905 9.620667
185.5726 10.72537
186.0547 11.77029
186.5368 12.74332
187.0190 13.77023
187.5011 15.22032
187.9832 16.48828
188.4653 17.10695
188.9474 17.00999
189.4296 16.49644
189.9117 15.80664
190.3938 14.96761
190.8759 14.10416
191.3580 13.17249
191.8401 12.21185
192.3223 11.28908
192.8044 10.48012
193.2865 9.658447
193.7686 8.498505
194.2507 7.183792
194.7328 6.340225
195.2150 6.361649
195.6971 6.950439
196.1792 7.477036
196.6613 7.777252
197.1434 8.346802
197.6255 9.506653
198.1077 11.14987
198.5898 13.05731
199.0719 15.03716
199.5540 17.15799
200.0361 19.74803
200.5182 22.93228
201.0004 26.49806
201.4825 30.11751
201.9646 33.92836
202.4467 38.23657
202.9288 43.36252
203.4109 49.27443
203.8930 55.26189
204.3752 61.52838
204.8573 67.63293
205.3394 73.55962
205.8215 79.18703
206.3036 84.32407
206.7857 88.78522
207.2679 92.56479
207.7500 95.88148
208.2321 98.92570
208.7142 101.2922
209.1963 102.5658
209.6784 102.9690
210.1606 103.0369
210.6427 103.1968
211.1248 103.4348
211.6069 103.9242
212.0890 104.6160
212.5711 105.5318
213.0533 106.7195
213.5354 108.1523
214.0175 109.7373
214.4996 111.3494
214.9817 112.9071
215.4638 115.1946
215.9460 118.6581
216.4281 122.2825
216.9102 125.4768
217.3923 128.3042
217.8744 131.3624
218.3565 135.2843
218.8387 140.2410
219.3208 144.2929
219.8029 147.2525
220.2850 149.6080
220.7671 151.5630
221.2492 153.1636
221.7314 154.4667
222.2135 155.4754
222.6956 156.1597
223.1777 156.8629
223.6598 158.1040
224.1419 158.9954
224.6240 158.8642
225.1062 157.6845
225.5883 155.8735
226.0704 153.8824
226.5525 151.5219
227.0346 147.9079
227.5167 142.2213
227.9989 135.7218
228.4810 129.5969
228.9631 123.9262
229.4452 118.1799
229.9273 111.9046
230.4094 105.2881
230.8916 98.81168
231.3737 92.55434
231.8558 86.49637
232.3379 80.62379
232.8200 74.94069
233.3021 69.43210
233.7843 63.83466
234.2664 58.44235
234.7485 53.79237
235.2306 50.19380
235.7127 47.25316
236.1948 44.33758
236.6770 41.29946
237.1591 38.84418
237.6412 37.59858
238.1233 37.05414
238.6054 36.72394
239.0875 36.44370
239.5697 36.33754
240.0518 36.61113
240.5339 37.30412
241.0160 38.26923
241.4981 39.40741
241.9802 40.78954
242.4624 42.56817
242.9445 44.84389
243.4266 47.37569
243.9087 49.73584
244.3908 51.82483
244.8729 54.00595
245.3550 56.37161
245.8372 58.86157
246.3193 61.48297
246.8014 64.25182
247.2835 67.01060
247.7656 69.59631
248.2477 72.16629
248.7299 74.10686
249.2120 75.62906
249.6941 76.40237
250.1762 76.15790
250.6583 74.81383
251.1404 72.46877
251.6226 69.09918
252.1047 64.20695
252.5868 59.41154
253.0689 54.80380
253.5510 50.38182
254.0331 46.07231
254.5153 41.88326
254.9974 37.90189
255.4795 34.20406
255.9616 30.73185
256.4437 27.76712
256.9258 25.34596
257.4080 23.31645
257.8901 21.55637
258.3722 20.03227
258.8543 18.78476
259.3364 17.90001
259.8185 17.50955
260.3007 17.17212
260.7828 16.80483
261.2649 16.52753
261.7470 16.39425
262.2291 16.41746
262.7112 16.60654
263.1934 16.98289
263.6755 17.59439
264.1576 18.23562
264.6397 19.19055
265.1218 19.93871
265.6039 20.05023
266.0861 19.60733
266.5682 19.08475
267.0503 18.95569
267.5324 19.30334
268.0145 19.53633
268.4966 19.41966
268.9788 19.42294
269.4609 19.90295
269.9430 20.75420
270.4251 21.55190
270.9072 21.92953
271.3893 21.86743
271.8715 21.97379
272.3536 22.38706
272.8357 22.83453
273.3178 22.98723
273.7999 23.02705
274.2820 23.49164
274.7642 24.78833
275.2463 26.83338
275.7284 28.73226
276.2105 30.40365
276.6926 32.07734
277.1747 33.74719
277.6568 35.49042
278.1389 37.46208
278.6211 39.75775
279.1032 42.30802
279.5853 44.81926
280.0674 47.35219
280.5495 49.81590
281.0316 52.19473
281.5138 54.48367
281.9959 56.69900
282.4780 58.85616
282.9601 60.88605
283.4422 62.55020
283.9243 63.77612
284.4065 64.86791
284.8886 66.03355
285.3707 67.07744
285.8528 67.71316
286.3349 67.84226
286.8170 67.53919
287.2992 66.85578
287.7813 65.72028
288.2634 64.52232
288.7455 63.54012
289.2276 62.44397
289.7097 60.74055
290.1919 58.30128
290.6740 55.63014
291.1561 53.36589
291.6382 51.61455
292.1203 49.46443
292.6024 46.45195
293.0846 43.21111
293.5667 40.37746
294.0488 38.01797
294.5309 35.80953
295.0130 33.44250
295.4951 30.91854
295.9773 28.56998
296.4594 26.45753
296.9415 24.48783
297.4236 22.63874
297.9057 20.90051
298.3878 19.14133
298.8700 17.25169
299.3521 15.26199
299.8342 13.36489
300.3163 11.33170
300.7984 9.608345
301.2805 8.636429
301.7627 8.268486
302.2448 7.797653
302.7269 6.824280
303.2090 5.508781
303.6911 4.338181
304.1732 3.262558
304.6554 2.373672
305.1375 1.751617
305.6196 1.349731
306.1017 1.086349
306.5838 0.9858170
307.0659 0.9099880
307.5481 0.5538860
308.0302 0.8004465
308.5123 0.7945180
308.9944 1.216423
309.4765 1.500031
309.9586 1.784721
310.4408 2.108917
310.9229 2.420303
311.4050 2.677658
311.8871 2.901001
312.3692 2.917374
312.8513 2.482323
313.3335 1.919052
313.8156 1.666183
314.2977 1.797981
314.7798 1.948006
315.2619 1.741776
315.7440 1.204552
316.2262 0.7949140
316.7083 0.7082600
317.1904 0.6501460
317.6725 0.3815230
318.1546 0.6760490
318.6367 0.6870960
319.1188 1.343491
319.6010 2.045105
320.0831 2.684761
320.5652 3.271477
321.0473 3.793106
321.5294 4.240471
322.0115 4.616432
322.4937 4.935310
322.9758 5.204384
323.4579 5.416267
323.9400 5.557373
324.4221 5.644821
324.9042 5.648468
325.3864 5.593674
325.8685 5.443810
326.3506 5.080399
326.8327 4.428238
327.3148 3.692337
327.7969 3.252251
328.2791 3.196815
328.7612 2.890694
329.2433 2.000977
329.7254 0.9017790
330.2075 1.9881999E-02
330.6896 0.5715410
331.1718 1.033234
331.6539 1.550667
332.1360 2.126503
332.6181 2.460175
333.1002 2.263985
333.5823 2.030701
334.0645 2.218773
334.5466 2.778679
335.0287 3.229164
335.5108 3.208664
335.9929 2.781128
336.4750 2.482994
336.9572 2.328583
337.4393 2.268555
337.9214 2.389847
338.4035 2.594383
338.8856 2.646622
339.3677 2.431984
339.8499 2.014137
340.3320 1.542717
340.8141 0.9770510
341.2962 0.4411090
341.7783 4.1161001E-02
342.2604 0.4819560
342.7426 0.8340990
343.2247 1.082382
343.7068 1.418823
344.1889 2.159019
344.6710 3.573067
345.1531 4.577698
345.6353 4.864014
346.1174 4.942986
346.5995 5.119179
347.0816 5.454407
347.5637 5.994232
348.0458 6.822029
348.5280 7.963905
349.0101 8.833832
349.4922 9.246315
349.9743 9.623840
350.4564 10.23983
350.9385 10.96239
351.4207 11.47554
351.9028 11.58911
352.3849 11.36194
352.8670 11.03124
353.3491 10.22247
353.8312 9.774826
354.3134 10.11848
354.7955 10.74743
355.2776 11.07764
355.7597 10.90535
356.2418 10.42129
356.7239 9.924408
357.2061 9.304306
357.6882 8.922775
358.1703 9.009010
358.6524 9.138397
359.1345 8.954956
359.6166 8.475266
360.0987 8.016418
360.5808 7.893585
361.0630 8.141838
361.5451 8.389175
362.0272 8.625145
362.5093 8.866951
362.9914 9.126007
363.4735 9.397469
363.9557 9.631981
364.4378 9.781319
364.9199 9.928345
365.4020 10.44590
365.8841 11.78566
366.3662 12.85485
366.8484 13.40591
367.3305 13.70722
367.8126 13.97324
368.2947 14.28085
368.7768 14.65212
369.2589 15.16364
369.7411 15.93648
370.2232 16.52712
370.7053 16.82780
371.1874 17.08876
371.6695 17.48096
372.1516 17.94118
372.6338 18.26067
373.1159 18.25535
373.5980 17.95203
374.0801 17.61836
374.5622 17.09489
375.0443 16.70710
375.5265 16.63763
376.0086 16.76897
376.4907 16.92643
376.9728 17.06258
377.4549 17.09135
377.9370 16.74202
378.4192 15.80529
378.9013 15.08694
379.3834 15.02357
379.8655 15.13037
380.3476 15.01138
380.8297 14.59059
381.3119 14.14398
381.7940 14.00235
382.2761 14.15670
382.7582 14.15076
383.2403 13.73340
383.7224 13.37971
384.2046 13.45340
384.6867 13.86089
385.1688 14.26071
385.6509 14.43259
386.1330 14.47757
386.6151 14.62730
387.0973 14.90102
387.5794 15.19240
388.0615 15.44509
388.5436 15.64436
389.0257 15.77683
389.5078 15.85756
389.9900 15.82050
390.4721 15.54378
390.9542 15.10069
391.4363 14.82645
391.9184 14.85618
392.4005 14.98992
392.8827 15.01657
393.3648 14.97458
393.8469 14.84773
394.3290 14.53651
394.8111 14.13749
395.2932 13.79392
395.7754 13.51141
396.2575 13.31072
396.7396 13.29646
397.2217 13.45010
397.7038 13.40975
398.1859 13.00383
398.6681 12.54846
399.1501 12.19093
399.6323 11.94049
400.1144 11.83421
400.5965 11.91251
401.0786 12.08732
401.5607 12.11063
402.0428 11.85895
402.5250 11.69493
403.0071 11.81146
403.4892 11.98324
403.9713 11.91959
404.4534 11.56561
404.9355 11.12537
405.4177 10.83230
405.8998 10.71698
406.3819 10.61765
406.8640 10.54247
407.3461 10.47421
407.8282 10.43348
408.3104 10.39357
408.7925 10.30860
409.2746 10.15462
409.7567 9.916466
410.2388 9.514511
410.7209 8.630653
411.2031 8.003662
411.6852 7.874809
412.1673 7.924881
412.6494 7.862663
413.1315 7.607872
413.6136 7.251999
414.0958 6.881554
414.5779 6.442329
415.0600 6.202522
415.5421 6.402641
416.0242 6.584427
416.5063 6.479187
416.9885 6.207512
417.4706 6.089912
417.9527 6.364838
418.4348 6.910683
418.9169 7.305779
419.3990 7.476372
419.8812 7.655060
420.3633 7.702095
420.8454 7.897667
421.3275 8.640610
421.8096 10.04302
422.2917 11.47387
422.7739 12.07301
423.2560 11.90533
423.7381 12.40819
424.2202 14.14544
424.7023 16.12685
425.1844 17.54559
425.6666 18.54513
426.1487 19.65929
426.6308 21.13170
427.1129 22.84012
427.5950 24.59286
428.0771 26.39487
428.5593 28.31247
429.0414 30.39763
429.5235 32.61592
430.0056 34.81751
430.4877 36.88832
430.9698 39.20748
431.4520 42.05907
431.9341 45.26514
432.4162 48.53364
432.8983 51.79339
433.3804 54.98331
433.8625 57.95284
434.3447 60.63780
434.8268 63.71669
435.3089 67.19608
435.7910 71.08890
436.2731 75.60912
436.7552 80.57849
437.2374 85.44235
437.7195 89.85307
438.2016 93.95864
438.6837 98.25000
439.1658 102.8062
439.6479 107.4673
440.1301 112.2557
440.6122 117.1116
441.0943 121.9525
441.5764 126.7460
442.0585 131.5792
442.5406 136.5986
443.0227 141.9504
443.5049 146.5096
443.9870 149.8491
444.4691 152.8119
444.9512 155.8313
445.4333 158.5842
445.9154 160.5466
446.3976 161.4109
446.8797 161.3963
447.3618 160.9327
447.8439 159.9384
448.3260 158.7406
448.8081 157.7081
449.2903 156.2343
449.7724 153.7532
450.2545 150.3284
450.7366 146.6678
451.2187 143.3733
451.7008 140.2766
452.1830 136.7625
452.6651 132.7053
453.1472 128.5381
453.6293 124.3169
454.1114 120.2284
454.5935 116.5881
455.0757 113.6281
455.5578 110.7609
456.0399 107.2739
456.5220 103.4182
457.0041 100.2713
457.4862 98.30018
457.9684 96.76359
458.4505 94.63841
458.9326 91.93546
459.4147 89.53823
459.8968 87.71661
460.3789 86.19727
460.8611 84.76551
461.3432 83.40512
461.8253 82.16855
462.3074 81.08417
462.7895 80.12079
463.2716 79.15486
463.7538 78.04257
464.2359 77.16576
464.7180 76.65646
465.2001 76.31750
465.6822 75.98705
466.1643 75.62035
466.6465 75.23322
467.1286 74.85912
467.6107 74.51550
468.0928 74.00139
468.5749 73.42404
469.0570 72.54588
469.5392 71.23376
470.0213 69.57436
470.5034 67.63429
470.9855 65.42655
471.4676 63.18682
471.9497 61.46655
472.4319 60.51686
472.9140 59.00185
473.3961 56.34370
473.8782 53.37331
474.3603 50.43881
474.8424 47.60138
475.3246 44.86689
475.8067 42.15448
476.2888 39.59908
476.7709 37.54920
477.2530 36.09097
477.7351 34.64716
478.2173 32.93567
478.6994 31.08495
479.1815 29.29086
479.6636 27.54348
480.1457 25.93063
480.6278 24.60532
481.1100 23.41749
481.5920 22.00304
482.0742 20.28176
482.5563 18.71092
483.0384 17.74722
483.5205 17.38937
484.0026 16.83539
484.4847 16.02972
484.9669 15.10513
485.4490 13.99425
485.9311 12.82190
486.4132 11.79107
486.8953 10.97362
487.3774 10.32744
487.8596 9.804245
488.3417 9.464169
488.8238 9.067688
489.3059 8.622746
489.7880 8.125534
490.2701 7.556446
490.7523 6.937840
491.2344 6.290253
491.7165 5.606598
492.1986 4.966457
492.6807 4.628559
493.1628 4.730457
493.6450 4.755936
494.1271 4.654568
494.6092 4.398975
495.0913 3.865551
495.5734 3.095558
496.0555 2.398533
496.5377 2.056843
497.0198 1.950272
497.5019 1.738171
497.9840 1.382893
498.4661 1.066799
498.9482 0.9000660
499.4304 0.8310740
499.9125 0.7582280
500.3946 0.6735880
500.8767 0.5925980
501.3588 0.5508690
501.8409 0.5093500
502.3231 0.3515130
502.8052 5.2094001E-02
503.2873 0.1868820
503.7694 0.1336210
504.2515 0.2254640
504.7336 0.3525200
505.2158 5.3001001E-02
505.6979 0.2329060
506.1800 0.2907450
506.6621 0.2517360
507.1442 0.3479730
507.6263 0.6573070
508.1085 1.024609
508.5906 1.204288
509.0727 1.147038
509.5548 1.078865
510.0369 0.8770600
510.5190 0.7882610
511.0012 1.041451
511.4833 1.460995
511.9654 1.702690
512.4475 1.574451
512.9296 1.254799
513.4117 1.067810
513.8939 1.033810
514.3760 0.9658160
514.8581 0.7616920
515.3402 0.5773160
515.8223 0.5453220
516.3044 0.6517490
516.7866 0.7912330
517.2687 0.9782680
517.7508 1.139381
518.2329 1.193287
518.7150 1.139336
519.1971 0.9541510
519.6793 0.5610540
520.1614 0.1015280
520.6435 6.0821999E-02
521.1256 0.1865160
521.6077 0.3433840
522.0898 0.2582740
522.5720 9.1689996E-02
523.0541 4.3579001E-02
523.5362 0.1250950
524.0183 0.1458970
524.5004 9.5679998E-02
524.9825 9.0450002E-03
525.4647 9.3349002E-02
525.9468 0.2317730
526.4289 0.2287640
526.9110 0.4001575
527.3931 0.4037250
527.8752 0.6269040
528.3574 0.7021100
528.8395 0.6904370
529.3216 0.6157650
529.8037 0.4976580
530.2858 0.4595260
530.7679 0.5341380
531.2501 0.6192280
531.7322 0.6733090
532.2143 0.7079280
532.6964 0.7327270
533.1785 0.7480050
533.6606 0.7661250
534.1428 0.7808490
534.6249 0.8134730
535.1070 0.9102670
535.5891 1.073200
536.0712 1.238689
536.5533 1.363510
537.0355 1.458225
537.5176 1.572258
537.9997 1.789864
538.4818 1.916393
538.9639 1.792515
539.4460 1.602955
539.9282 1.580425
540.4103 1.766308
540.8924 2.047138
541.3745 2.323589
541.8566 2.600101
542.3387 2.759686
542.8209 2.722866
543.3029 2.649197
543.7850 2.527222
544.2672 2.410210
544.7493 2.336308
545.2314 2.318317
545.7135 2.390308
546.1956 2.675480
546.6777 3.139473
547.1599 3.348038
547.6420 3.184135
548.1241 2.972870
548.6062 2.900223
549.0883 2.915604
549.5704 2.938931
550.0526 2.930603
550.5347 2.981339
551.0168 3.215961
551.4989 3.540203
551.9810 3.744221
552.4631 3.783207
552.9453 3.781811
553.4274 3.859612
553.9095 4.017117
554.3916 4.115131
554.8737 4.106796
555.3558 4.095043
555.8380 4.075954
556.3201 4.090763
556.8022 4.219662
557.2843 4.466839
557.7664 4.705257
558.2485 4.767937
558.7307 4.644691
559.2128 4.633213
559.6949 4.865185
560.1770 5.015984
560.6591 4.910900
561.1412 4.701057
561.6234 4.583168
562.1055 4.614525
562.5876 4.671761
563.0697 4.661488
563.5518 4.583771
564.0339 4.442131
564.5161 4.217594
564.9982 4.038517
565.4803 4.028721
565.9624 4.127426
566.4445 4.090870
566.9266 3.834782
567.4088 3.594292
567.8909 3.417465
568.3730 3.324505
568.8551 3.378979
569.3372 3.558289
569.8193 3.703854
570.3015 3.675838
570.7836 3.491718
571.2657 3.274834
571.7478 2.927670
572.2299 2.670013
572.7120 2.532909
573.1942 2.507591
573.6763 2.645088
574.1584 2.910225
574.6405 3.073631
575.1226 2.818310
575.6047 2.277596
576.0869 2.059307
576.5690 2.265369
577.0511 2.392296
577.5332 2.107182
578.0153 1.676544
578.4974 1.536827
578.9796 1.748245
579.4617 1.878666
579.9438 1.679924
580.4259 1.393208
580.9080 1.284657
581.3901 1.359425
581.8723 1.494675
582.3544 1.621204
582.8365 1.726669
583.3186 1.785591
583.8007 1.840733
584.2828 1.776478
584.7650 1.482536
585.2471 1.198654
585.7292 1.083145
586.2113 1.109756
586.6934 1.162792
587.1755 1.179214
587.6577 1.155197
588.1398 1.059860
588.6219 0.8734820
589.1040 0.7856560
589.5861 0.8872070
590.0682 1.052250
590.5504 1.211330
591.0325 1.348148
591.5146 1.344410
591.9967 0.9792560
592.4788 0.6152610
592.9609 0.6166690
593.4431 0.8822590
593.9252 1.091942
594.4073 1.125214
594.8894 1.101910
595.3715 1.205658
595.8536 1.502651
596.3358 1.623863
596.8179 1.424179
597.3000 1.234642
597.7821 1.187466
598.2642 1.219421
598.7463 1.219017
599.2285 1.150162
599.7106 1.088928
600.1927 1.154263
600.6748 1.338573
601.1569 1.433773
601.6390 1.389412
602.1212 1.342930
602.6033 1.365074
603.0854 1.438087
603.5675 1.557854
604.0496 1.768688
604.5317 1.898136
605.0139 1.796291
605.4960 1.584492
605.9781 1.418442
606.4602 1.324585
606.9423 1.313747
607.4244 1.405502
607.9066 1.573841
608.3887 1.704105
608.8708 1.819805
609.3529 1.859177
609.8350 1.773190
610.3171 1.649815
610.7993 1.486897
611.2814 1.336750
611.7635 1.346554
612.2456 1.667484
612.7277 2.107063
613.2098 2.236206
613.6920 2.028114
614.1741 1.827259
614.6562 1.704311
615.1383 1.633343
615.6204 1.585926
616.1025 1.562515
616.5847 1.582443
617.0668 1.672962
617.5489 1.784439
618.0310 1.927692
618.5131 2.060673
618.9952 2.078110
619.4774 1.952801
619.9595 1.797054
620.4416 1.742577
620.9237 1.795345
621.4058 1.856358
621.8879 1.986645
622.3701 2.046459
622.8522 1.925556
623.3343 1.768539
623.8164 1.751411
624.2985 1.895523
624.7806 2.026562
625.2628 1.996185
625.7448 1.846523
626.2269 1.646767
626.7090 1.384670
627.1912 1.270412
627.6733 1.477276
628.1554 1.811981
628.6375 1.885944
629.1196 1.648899
629.6017 1.452293
630.0839 1.205349
630.5660 1.141296
631.0481 1.632362
631.5302 2.423409
632.0123 2.896336
632.4944 2.764465
632.9766 2.328152
633.4587 2.079002
633.9408 2.044144
634.4229 2.069897
634.9050 2.223972
635.3871 2.341957
635.8693 2.282864
636.3514 2.167683
636.8335 2.196724
637.3156 2.439156
637.7977 2.713551
638.2798 2.961029
638.7620 3.130310
639.2441 3.042435
639.7262 2.682602
640.2083 2.462536
640.6904 2.691219
641.1725 3.222206
641.6547 3.573875
642.1368 3.695942
642.6189 3.689907
643.1010 3.393410
643.5831 3.116131
644.0652 3.031654
644.5474 3.122059
645.0295 3.347237
645.5116 3.719193
645.9937 4.083557
646.4758 4.103607
646.9579 3.790672
647.4401 3.730404
647.9222 4.061146
648.4043 4.469215
648.8864 4.765636
649.3685 4.983082
649.8506 5.173660
650.3328 5.355309
650.8149 5.476612
651.2970 5.431011
651.7791 5.362366
652.2612 5.478981
652.7433 5.789417
653.2255 6.119324
653.7076 6.327919
654.1897 6.453289
654.6718 6.672470
655.1539 7.035217
655.6360 7.368057
656.1182 7.642948
656.6003 7.881569
657.0824 8.104172
657.5645 8.307716
658.0466 8.468281
658.5287 8.552231
659.0109 8.644058
659.4930 8.832607
659.9751 9.077896
660.4572 9.259247
660.9393 9.342899
661.4214 9.486820
661.9036 9.868267
662.3857 10.44981
662.8678 10.81113
663.3499 10.81889
663.8320 10.77244
664.3141 10.60604
664.7963 10.49248
665.2784 10.57781
665.7605 10.83914
666.2426 11.15204
666.7247 11.46741
667.2068 11.73213
667.6890 11.82930
668.1711 11.77258
668.6532 11.77439
669.1353 11.90069
669.6174 12.01796
670.0995 11.97703
670.5817 11.80258
671.0638 11.73082
671.5459 11.84837
672.0280 11.95657
672.5101 11.95477
672.9922 11.93811
673.4744 12.07170
673.9565 12.32955
674.4386 12.47064
674.9207 12.29069
675.4028 11.89557
675.8849 11.58949
676.3671 11.38663
676.8492 11.23584
677.3313 11.18266
677.8134 11.09413
678.2955 10.80066
678.7776 10.38070
679.2598 10.11684
679.7419 10.16073
680.2240 10.26336
680.7061 10.37254
681.1882 10.40524
681.6703 10.14852
682.1525 9.621964
682.6346 9.177208
683.1167 9.132492
683.5988 9.368881
684.0809 9.217514
684.5630 8.406376
685.0452 7.800312
685.5273 7.663521
686.0094 7.645634
686.4915 7.640072
686.9736 7.582897
687.4557 7.339878
687.9379 6.827133
688.4200 6.170464
688.9021 5.282513
689.3842 4.376591
689.8663 4.067604
690.3484 4.450447
690.8306 4.864483
691.3127 4.783577
691.7948 4.312050
692.2769 3.966557
692.7590 3.763447
693.2411 3.673183
693.7233 3.814529
694.2054 3.947594
694.6875 4.002316
695.1696 3.928009
695.6517 3.567848
696.1339 2.731350
696.6160 1.973534
697.0981 2.124096
697.5802 2.884071
698.0623 3.148121
698.5444 2.724770
699.0266 2.160789
699.5087 1.810940
699.9908 1.631828
700.4729 1.462440
700.9550 1.233788
701.4371 1.124306
701.9193 1.295856
702.4014 1.438839
702.8835 1.356525
703.3656 1.096767
703.8477 0.7532540
704.3298 0.3486520
704.8120 4.0858999E-02
705.2941 0.1311260
705.7762 0.5146290
706.2583 0.6513060
706.7404 0.4615060
707.2225 0.2275770
707.7046 9.8957002E-02
708.1867 4.7031000E-02
708.6688 8.9570004E-03
709.1509 1.8795000E-02
709.6331 4.5231000E-02
710.1152 0.2845990
710.5973 0.5093460
711.0794 0.6076130
711.5615 0.6111980
712.0436 0.5843930
712.5258 0.5504990
713.0079 0.5088390
713.4900 0.4367260
713.9721 0.3499110
714.4542 0.3308330
714.9363 0.3847470
715.4185 0.4999120
715.9006 0.7085080
716.3827 0.9385570
716.8648 1.068531
717.3469 1.093624
717.8290 1.066025
718.3112 0.9438820
718.7933 0.8190840
719.2754 0.7433780
719.7575 0.6916690
720.2396 0.5988040
720.7217 0.4612690
721.2039 0.3818170
721.6860 0.4902800
722.1681 0.7315790
722.6502 0.9000590
723.1323 0.9962500
723.6144 1.002571
724.0966 0.8612670
724.5787 0.7063750
725.0608 0.7276920
725.5429 0.9186740
726.0250 1.007183
726.5071 0.8888240
726.9893 0.7722130
727.4714 0.7476690
727.9535 0.7544250
728.4356 0.7178080
728.9177 0.6354260
729.3998 0.5617790
729.8820 0.5358730
730.3641 0.5466880
730.8462 0.6127970
731.3283 0.7423400
731.8104 0.6452750
732.2925 0.1398620
732.7747 0.3047870
733.2568 0.2346690
733.7389 0.2399520
734.2210 0.4995190
734.7031 0.4083330
735.1852 0.3150370
735.6674 0.2634580
736.1495 0.2575150
736.6316 0.3633190
737.1137 0.2771380
737.5958 0.2484007
738.0779 0.2225110
738.5601 8.5831001E-02
739.0422 0.1036990
739.5243 2.3252646E-02
740.0064 0.7219470
740.4885 5.7776999E-02
740.9706 0.7257310
741.4528 0.7268750
741.9349 0.3262560
742.4170 8.7188996E-02
742.8991 1.8219000E-02
743.3812 5.8998000E-02
743.8633 0.3337170
744.3455 0.5838620
744.8276 0.6586150
745.3097 0.6250310
745.7918 0.6049880
746.2739 0.6287460
746.7560 0.6193470
747.2382 0.4546050
747.7203 0.2064510
748.2024 7.7437997E-02
748.6845 6.7703001E-02
749.1666 0.2141650
749.6487 0.5567930
750.1309 0.9984740
750.6130 1.485123
751.0951 2.028000
751.5772 2.279015
752.0593 1.866112
752.5414 1.666397
753.0236 2.051537
753.5057 2.600662
753.9878 2.969551
754.4699 3.115707
754.9520 3.147400
755.4341 3.077545
755.9163 3.008331
756.3984 3.055298
756.8805 3.225288
757.3626 3.623573
757.8447 4.290077
758.3268 4.863281
758.8090 5.063812
759.2911 5.002800
759.7732 5.046890
760.2553 5.181290
760.7374 5.449280
761.2195 5.962212
761.7017 6.467033
762.1838 6.748878
762.6659 6.974701
763.1480 7.462944
763.6301 8.315605
764.1122 9.239273
764.5944 10.01089
765.0765 10.70687
765.5586 11.49413
766.0407 12.35123
766.5228 13.04932
767.0049 13.49479
767.4871 13.89390
767.9692 14.51189
768.4513 15.36440
768.9334 16.20084
769.4155 17.02656
769.8976 17.84828
770.3798 18.48960
770.8619 19.26865
771.3440 20.51334
771.8261 22.15036
772.3082 23.74864
772.7903 25.16805
773.2725 26.48071
773.7546 27.61842
774.2367 28.71865
774.7188 29.97904
775.2009 31.44199
775.6830 33.08261
776.1652 34.89163
776.6473 36.90417
777.1294 39.24176
777.6115 41.97012
778.0936 44.58588
778.5757 46.90996
779.0579 49.39948
779.5400 52.25242
780.0221 55.42915
780.5042 58.86213
780.9863 62.61732
781.4684 66.45703
781.9506 70.19244
782.4327 74.13654
782.9148 78.35985
783.3969 82.98038
783.8790 88.23648
784.3611 94.15805
784.8433 100.3957
785.3254 106.5512
785.8075 112.8205
786.2896 119.6638
786.7717 127.0555
787.2538 135.2095
787.7360 144.2139
788.2181 153.8507
788.7002 163.7970
789.1823 174.1290
789.6644 185.1833
790.1465 196.9774
790.6286 209.5092
791.1107 222.8427
791.5928 236.8495
792.0750 251.4497
792.5571 266.7045
793.0392 282.8342
793.5213 299.8494
794.0034 317.9239
794.4855 337.5705
794.9677 358.2490
795.4498 378.7640
795.9319 399.2206
796.4140 419.9279
796.8961 441.0876
797.3782 462.6618
797.8604 484.6906
798.3425 507.3477
798.8246 529.3016
799.3067 550.7333
799.7888 571.2598
800.2709 590.7797
800.7531 609.2855
801.2352 626.6198
801.7173 642.7911
802.1994 657.5302
802.6815 670.4106
803.1636 682.3640
803.6458 694.3214
804.1279 705.1971
804.6100 714.1836
805.0921 720.8560
805.5742 724.4683
806.0563 724.5315
806.5385 721.8331
807.0206 717.7344
807.5027 712.1514
807.9848 703.9207
808.4669 692.9701
808.9490 679.1846
809.4312 662.0992
809.9133 642.8174
810.3954 623.0410
810.8775 602.9172
811.3596 581.0452
811.8417 556.4393
812.3239 531.4913
812.8060 506.8132
813.2881 482.1786
813.7702 457.2512
814.2523 432.3145
814.7344 408.4767
815.2166 386.4906
815.6987 365.4665
816.1808 344.7538
816.6629 324.5015
817.1450 304.8945
817.6271 286.0207
818.1093 268.3434
818.5914 252.1566
819.0735 237.1312
819.5556 222.5818
820.0377 208.3620
820.5198 195.4618
821.0020 184.0363
821.4841 173.4473
821.9662 163.7522
822.4483 154.6218
822.9304 145.7397
823.4125 137.0954
823.8947 128.9608
824.3768 121.3841
824.8589 114.3898
825.3410 108.0974
825.8231 102.2844
826.3052 96.76401
826.7874 91.50383
827.2695 86.55713
827.7516 81.94365
828.2337 77.58410
828.7158 73.38989
829.1979 69.34480
829.6801 65.30208
830.1622 61.26842
830.6443 57.61503
831.1264 54.56660
831.6085 51.92960
832.0906 49.38340
832.5728 46.91070
833.0549 44.62492
833.5370 42.76083
834.0191 40.74935
834.5012 38.11813
834.9833 35.59819
835.4655 33.88868
835.9476 32.85470
836.4297 31.77746
836.9118 30.30862
837.3939 28.99834
837.8760 28.30468
838.3582 27.84333
838.8403 27.06723
839.3224 26.05568
839.8045 25.30843
840.2866 25.07220
840.7687 25.00411
841.2509 24.61157
841.7330 23.97890
842.2151 23.51982
842.6972 23.23228
843.1793 23.19291
843.6614 23.51062
844.1436 23.86996
844.6257 23.87348
845.1078 23.52499
845.5899 23.35549
846.0720 23.40805
846.5541 23.62892
847.0363 23.97845
847.5184 24.48301
848.0005 25.18118
848.4826 26.05491
848.9647 27.11565
849.4468 28.45123
849.9290 29.62457
850.4111 30.14520
850.8932 30.58298
851.3753 31.56783
851.8574 32.97090
852.3395 34.41281
852.8217 35.74404
853.3038 37.01183
853.7859 38.19493
854.2680 39.42381
854.7501 41.21260
855.2322 43.55587
855.7144 45.44696
856.1965 46.58630
856.6786 47.72458
857.1607 49.48516
857.6428 51.60336
858.1249 53.23524
858.6071 54.20720
859.0892 55.04151
859.5713 55.56610
860.0534 56.17379
860.5355 57.14115
861.0176 58.17506
861.4998 58.94410
861.9819 59.41357
862.4640 59.71568
862.9461 60.00346
863.4282 60.03446
863.9103 59.45466
864.3925 58.62082
864.8746 58.14711
865.3567 57.96869
865.8388 57.44788
866.3209 56.18678
866.8030 54.63700
867.2852 53.60867
867.7673 52.94551
868.2494 51.70493
868.7315 49.81830
869.2136 47.97443
869.6957 46.46621
870.1779 45.07144
870.6600 43.51511
871.1421 41.79358
871.6242 40.07281
872.1063 38.47035
872.5884 36.65998
873.0705 34.28901
873.5526 31.99002
874.0347 30.21083
874.5168 28.79655
874.9990 27.30892
875.4811 25.65757
875.9632 24.03393
876.4453 22.57299
876.9274 21.10979
877.4095 19.44605
877.8917 17.72411
878.3738 16.20538
878.8559 14.93707
879.3380 13.71736
879.8201 12.34346
880.3022 10.98388
880.7844 9.949028
881.2665 9.164257
881.7486 8.368870
882.2307 7.521507
882.7128 6.688080
883.1949 5.904060
883.6771 5.205994
884.1592 4.716587
884.6413 4.486675
885.1234 4.053360
885.6055 3.325371
886.0876 2.605694
886.5698 1.908207
887.0519 1.356083
887.5340 1.231529
888.0161 1.482464
888.4982 1.284073
888.9803 1.329198
889.4625 0.8499260
889.9446 1.027634
890.4267 0.8334580
890.9088 0.1167560
891.3909 0.6938210
891.8730 0.7199400
892.3552 0.3133010
892.8373 1.289791
893.3194 1.415871
893.8015 1.200958
894.2836 1.071384
894.7657 1.054733
895.2479 1.234287
895.7300 1.580158
896.2121 1.835922
896.6942 1.797283
897.1763 1.592079
897.6584 1.442596
898.1406 1.352184
898.6227 1.386951
899.1048 1.566872
899.5869 1.694984
900.0690 1.674999
900.5511 1.569984
901.0333 1.471924
901.5154 1.382515
901.9975 1.255039
902.4796 1.006824
902.9617 0.8766980
903.4438 1.049030
903.9260 1.215363
904.4081 1.135864
904.8902 0.8925440
905.3723 0.6869280
905.8544 0.5339010
906.3365 0.4450720
906.8187 0.4813540
907.3008 0.5159340
907.7829 0.4224010
908.2650 0.3087500
908.7471 0.3758090
909.2292 0.6141700
909.7114 0.7591090
910.1935 0.6028100
910.6756 0.3692090
911.1577 0.3132480
911.6398 0.3352390
912.1219 0.2169000
912.6041 0.2429266
913.0862 0.2102580
913.5683 0.2410200
914.0504 0.2058680
914.5325 0.1952780
915.0146 0.2212560
915.4968 0.3921510
915.9789 0.7181700
916.4610 0.9084400
916.9431 0.8600960
917.4252 0.8054120
917.9073 0.9458430
918.3895 1.219608
918.8716 1.403141
919.3537 1.452911
919.8358 1.533909
920.3179 1.704964
920.8000 1.826332
921.2822 1.754261
921.7643 1.651123
922.2464 1.717609
922.7285 1.953026
923.2106 2.171684
923.6927 2.298031
924.1749 2.457119
924.6570 2.746696
925.1391 3.029747
925.6212 3.213764
926.1033 3.306366
926.5854 3.293419
927.0676 3.160995
927.5497 3.151657
928.0318 3.586731
928.5139 4.086380
928.9960 4.208763
929.4781 4.125507
929.9603 4.213467
930.4424 4.500805
930.9245 4.708157
931.4066 4.642506
931.8887 4.491276
932.3708 4.547661
932.8530 4.774776
933.3351 5.050880
933.8172 5.361591
934.2993 5.597248
934.7814 5.711617
935.2635 5.793655
935.7457 5.930019
936.2278 6.122009
936.7099 6.424404
937.1920 6.920277
937.6741 7.114956
938.1563 6.778694
938.6384 6.540276
939.1205 6.847336
939.6026 7.369789
940.0847 7.451199
940.5668 6.937019
941.0490 6.914471
941.5311 7.957462
942.0132 8.679829
942.4953 8.495354
942.9774 8.201851
943.4595 8.477764
943.9417 9.106552
944.4238 9.442066
944.9059 9.280846
945.3880 9.130146
945.8701 9.276363
946.3522 9.378845
946.8344 9.139973
947.3165 8.736565
947.7986 8.425171
948.2807 8.271461
948.7628 8.267033
949.2449 8.422161
949.7271 8.600437
950.2092 8.702568
950.6913 8.682327
951.1734 8.506901
951.6555 8.238560
952.1376 8.003311
952.6198 7.842030
953.1019 7.732079
953.5840 7.680275
954.0661 7.624352
954.5482 7.386776
955.0303 7.009899
955.5124 6.701012
955.9945 6.485363
956.4766 6.342346
956.9587 6.270447
957.4409 6.175377
957.9230 5.892017
958.4051 5.427803
958.8872 5.043324
959.3693 4.742638
959.8514 4.513184
960.3336 4.395840
960.8157 4.265629
961.2978 4.023045
961.7799 3.682144
962.2620 3.274548
962.7441 2.708752
963.2263 2.400627
963.7084 2.580769
964.1905 2.698635
964.6726 2.486649
965.1547 2.241047
965.6368 2.266144
966.1190 2.500862
966.6011 2.617264
967.0832 2.521538
967.5653 2.390373
968.0474 2.227398
968.5295 2.118271
969.0117 2.210117
969.4938 2.305397
969.9759 2.093052
970.4580 1.594765
970.9401 1.212536
971.4222 1.144428
971.9044 1.182060
972.3865 1.267559
972.8686 1.340736
973.3507 1.335846
973.8328 1.277008
974.3149 1.194736
974.7971 1.100418
975.2792 1.040676
975.7613 1.108559
976.2434 1.190674
976.7255 1.119637
977.2076 0.9388080
977.6898 0.6949230
978.1719 0.4338650
978.6540 0.3320500
979.1361 0.4686130
979.6182 0.6445660
980.1003 0.5775490
980.5825 0.3720340
981.0646 0.3897230
981.5467 0.6020950
982.0288 0.8232140
982.5109 1.017473
982.9930 1.071728
983.4752 0.8890900
983.9573 0.6296410
984.4394 0.6178070
984.9215 0.8542460
985.4036 1.000343
985.8857 1.045780
986.3679 1.077618
986.8500 1.124111
987.3321 1.145367
987.8142 1.099155
988.2963 1.012409
988.7784 0.9676840
989.2606 0.9771040
989.7427 0.9884530
990.2248 0.9975660
990.7069 1.019178
991.1890 1.089668
991.6711 1.138817
992.1533 1.071848
992.6354 0.9166450
993.1175 0.8409060
993.5996 0.8551850
994.0817 0.9269700
994.5638 1.169966
995.0460 1.336128
995.5281 1.214909
996.0102 1.048374
996.4923 1.173698
996.9744 1.540478
997.4565 1.675589
997.9387 1.221516
998.4208 0.9788570
998.9029 1.357132
999.3850 1.788069
999.8671 1.925837
1000.349 1.883615
1000.831 1.807457
1001.313 1.738852
1001.796 1.768961
1002.278 2.110714
1002.760 2.291670
1003.242 1.910538
1003.724 1.378677
1004.206 1.025906
1004.688 0.8414860
1005.170 0.7343830
1005.653 0.6773760
1006.135 0.6564120
1006.617 0.5065990
1007.099 0.6033100
1007.581 1.723106
1008.063 3.042496
1008.545 3.297401
1009.027 2.668570
1009.509 1.960241
1009.992 1.480938
1010.474 1.194412
1010.956 1.125877
1011.438 1.175985
1011.920 1.255644
1012.402 1.312653
1012.884 1.252617
1013.366 1.085897
1013.849 0.8521630
1014.331 0.5728490
1014.813 0.3900220
1015.295 0.5267940
1015.777 0.8310950
1016.259 0.8861080
1016.741 0.7324980
1017.223 0.6205140
1017.705 0.5885410
1018.188 0.5928730
1018.670 0.6100440
1019.152 0.6741850
1019.634 0.8712290
1020.116 1.145256
1020.598 1.166748
1021.080 0.9531360
1021.562 0.9294830
1022.044 1.177698
1022.527 1.315981
1023.009 1.106058
1023.491 0.7657510
1023.973 0.6416240
1024.455 0.7192120
1024.937 0.8060970
1025.419 0.9128590
1025.901 0.9170190
1026.384 0.7663310
1026.866 0.6628930
1027.348 0.7600520
1027.830 0.9153230
1028.312 0.8364410
1028.794 0.5048540
1029.276 0.3801100
1029.758 0.5259110
1030.240 0.6580030
1030.723 0.7089420
1031.205 0.7823330
1031.687 1.000332
1032.169 1.219070
1032.651 1.101587
1033.133 0.5691260
1033.615 0.3816510
1034.097 0.7013300
1034.579 1.022129
1035.062 1.309961
1035.544 1.478441
1036.026 1.435984
1036.508 1.253935
1036.990 1.071211
1037.472 0.8814180
1037.954 0.7632880
1038.436 0.6502570
1038.919 0.6391770
1039.401 0.8925780
1039.883 1.120577
1040.365 1.090385
1040.847 0.8978600
1041.329 0.7020660
1041.811 0.4434930
1042.293 0.4911310
1042.776 1.366421
1043.258 1.830883
1043.740 1.238914
1044.222 0.5835480
1044.704 0.5937670
1045.186 0.9656980
1045.668 1.069382
1046.150 0.8163390
1046.632 0.6458970
1047.115 0.6800800
1047.597 0.7004510
1048.079 0.6770250
1048.561 0.6119440
1049.043 0.4561600
1049.525 0.2669330
1050.007 0.1162530
1050.489 5.8439998E-03
1050.971 1.9456999E-02
1051.454 0.3331220
1051.936 0.5569190
1052.418 0.4981250
1052.900 0.3863110
1053.382 0.4066280
1053.864 0.4855100
1054.346 0.4688640
1054.828 0.3326840
1055.311 0.2000350
1055.793 6.3836999E-02
1056.275 1.3523000E-02
1056.757 1.2610001E-03
1057.239 7.3080003E-02
1057.721 0.2354760
1058.203 0.4238090
1058.685 0.5267300
1059.167 0.5295790
1059.650 0.5552730
1060.132 0.6489600
1060.614 0.7658920
1061.096 0.9889560
1061.578 1.128311
1062.060 0.9427510
1062.542 0.6255070
1063.024 0.5366540
1063.506 0.7111030
1063.989 0.7816930
1064.471 0.4972780
1064.953 0.2573280
1065.435 0.2429580
1065.917 0.3198930
1066.399 0.4464240
1066.881 0.5659680
1067.363 0.6333480
1067.846 0.6414780
1068.328 0.6120088
1068.810 0.5082329
1069.292 0.3929540
1069.774 0.2944340
1070.256 0.2874512
1070.738 0.1391160
1071.220 0.2664870
1071.703 0.2792870
1072.185 0.1852890
1072.667 0.2720700
1073.149 0.2030910
1073.631 0.3037190
1074.113 0.3325166
1074.595 0.3380390
1075.077 0.4818250
1075.559 0.5005530
1076.042 0.4996300
1076.524 0.4897940
1077.006 0.4070430
1077.488 0.1972450
1077.970 1.6914001E-02
1078.452 0.1313040
1078.934 0.1514720
1079.416 0.1766030
1079.898 0.2761876
1080.380 0.2538030
1080.863 0.2794835
1081.345 0.2690160
1081.827 0.2856670
1082.309 0.3237300
1082.791 0.3606990
1083.273 0.3478320
1083.755 0.2087250
1084.237 0.2230059
1084.720 8.3062999E-02
1085.202 0.1382850
1085.684 9.3240999E-02
1086.166 6.4843997E-02
1086.648 0.2202850
1087.130 0.3698710
1087.612 0.4555720
1088.094 0.3942850
1088.577 0.2994160
1089.059 0.2674100
1089.541 0.2924350
1090.023 0.3633670
1090.505 0.4784910
1090.987 0.5061910
1091.469 0.2979620
1091.951 0.1298560
1092.433 0.1219980
1092.916 0.1960640
1093.398 0.4183750
1093.880 0.6206970
1094.362 0.4486310
1094.844 0.1040080
1095.326 0.4393460
1095.808 0.1697640
1096.290 4.9968999E-02
1096.772 9.3488999E-02
1097.255 0.2433870
1097.737 0.1261120
1098.219 9.1181003E-02
1098.701 0.1620450
1099.183 8.4944002E-02
1099.665 3.9347000E-02
1100.147 7.2898999E-02
1100.629 0.1306210
1101.112 0.2210200
1101.594 0.3022820
1102.076 0.3433950
1102.558 0.3726410
1103.040 0.4560760
1103.522 0.5553400
1104.004 0.5173070
1104.486 0.2658390
1104.969 4.2142998E-02
1105.451 0.1903380
1105.933 0.2845100
1106.415 7.9185002E-02
1106.897 0.1836170
1107.379 0.3133910
1107.861 0.3451630
1108.343 0.3914660
1108.825 0.4737630
1109.307 0.5107570
1109.790 0.4073390
1110.272 0.3751640
1110.754 0.5398270
1111.236 0.7015840
1111.718 0.7735630
1112.200 0.7495990
1112.682 0.5703810
1113.164 0.2207600
1113.647 5.3782001E-02
1114.129 0.2023280
1114.611 0.3170660
1115.093 0.4024580
1115.575 0.4120810
1116.057 0.2775170
1116.539 0.1022360
1117.021 2.1400000E-03
1117.504 3.0422000E-02
1117.986 5.6474999E-02
1118.468 0.1190590
1118.950 5.8077000E-02
1119.432 0.2524280
1119.914 0.4185220
1120.396 0.2120930
1120.878 6.5000000E-04
1121.360 0.1449870
1121.843 4.7929998E-02
1122.325 8.7751001E-02
1122.807 0.2480260
1123.289 0.1910760
1123.771 0.5152450
1124.253 0.5749030
1124.735 0.1076680
1125.217 0.2461620
1125.699 2.4960000E-02
1126.182 0.4283660
1126.664 0.5015830
1127.146 0.2125020
1127.628 0.1214680
1128.110 0.2558290
1128.592 0.3781680
1129.074 0.4589690
1129.556 0.5091550
1130.039 0.5350110
1130.521 0.5250680
1131.003 0.4607330
1131.485 0.3463880
1131.967 0.1716730
1132.449 5.9657998E-02
1132.931 0.1189860
1133.413 3.9999999E-05
1133.896 7.9327002E-02
1134.378 5.2228998E-02
1134.860 4.1439001E-02
1135.342 0.1513540
1135.824 7.0510484E-02
1136.306 0.2140250
1136.788 1.6478000E-02
1137.270 2.6424000E-02
1137.752 5.7514001E-02
1138.234 0.1311230
1138.717 0.1679780
1139.199 0.1900390
1139.681 0.2092440
1140.163 0.2506750
1140.645 0.3902680
1141.127 0.5245270
1141.609 0.4156090
1142.091 0.1732060
1142.574 1.7085999E-02
1143.056 3.4651000E-02
1143.538 2.5500001E-03
1144.020 9.3014002E-02
1144.502 0.1568260
1144.984 9.4581999E-02
1145.466 4.1544002E-02
1145.948 0.1791670
1146.431 0.3752560
1146.913 0.4734710
1147.395 0.4975950
1147.877 0.4788930
1148.359 0.4496400
1148.841 0.5068680
1149.323 0.7150520
1149.805 0.8696210
1150.287 0.8088930
1150.770 0.6856690
1151.252 0.5467260
1151.734 0.4565890
1152.216 0.5338270
1152.698 0.6928370
1153.180 0.7284850
1153.662 0.6350770
1154.144 0.5185320
1154.626 0.3746470
1155.109 0.2486650
1155.591 0.1643660
1156.073 0.1203230
1156.555 0.1092720
1157.037 0.1356510
1157.519 0.2318330
1158.001 0.3827820
1158.483 0.4726960
1158.966 0.4843430
1159.448 0.4590720
1159.930 0.3679940
1160.412 0.2804390
1160.894 0.1208800
1161.376 8.3444998E-02
1161.858 0.4364220
1162.340 0.9374790
1162.822 1.041500
1163.305 0.6988770
1163.787 0.3985560
1164.269 0.1144790
1164.751 3.5420999E-02
1165.233 0.2794270
1165.715 0.4315200
1166.197 0.2510340
1166.679 9.6890004E-03
1167.161 1.9664999E-02
1167.644 0.2452390
1168.126 0.5635590
1168.608 0.9797310
1169.090 1.484379
1169.572 2.082039
1170.054 2.127041
1170.536 1.450426
1171.018 0.7344700
1171.500 0.4433800
1171.983 0.4216330
1172.465 0.4592440
1172.947 0.5448000
1173.429 0.6717680
1173.911 0.8113350
1174.393 0.8550510
1174.875 0.7970090
1175.357 0.6573850
1175.840 0.4556470
1176.322 0.3373570
1176.804 0.4842700
1177.286 0.6583540
1177.768 0.4865510
1178.250 0.2000080
1178.732 0.1478500
1179.214 0.2475280
1179.697 0.2687660
1180.179 0.2077710
1180.661 0.2502460
1181.143 0.4891280
1181.625 0.6978840
1182.107 0.7500500
1182.589 0.6987900
1183.071 0.4608360
1183.553 0.2474820
1184.036 0.2666720
1184.518 0.4080090
1185.000 0.4376070
1185.482 0.3312450
1185.964 0.2846870
1186.446 0.4144520
1186.928 0.4894080
1187.410 0.3793300
1187.892 0.3215600
1188.375 0.5123250
1188.857 0.7142620
1189.339 0.6760430
1189.821 0.4849070
1190.303 0.3870830
1190.785 0.3950180
1191.267 0.4505750
1191.749 0.5913660
1192.232 0.6467820
1192.714 0.5608690
1193.196 0.4729370
1193.678 0.4524190
1194.160 0.4595910
1194.642 0.4424270
1195.124 0.4159980
1195.606 0.4712540
1196.089 0.5994590
1196.571 0.5990240
1197.053 0.4666140
1197.535 0.3231560
1198.017 0.2040420
1198.499 0.1516190
1198.981 0.1919420
1199.463 0.3070160
1199.945 0.5224170
1200.427 0.7581060
1200.910 0.8594070
1201.392 0.8584710
1201.874 0.7961810
1202.356 0.6903970
1202.838 0.5563350
1203.320 0.4177250
1203.802 0.3895030
1204.284 0.5428750
1204.767 0.7246280
1205.249 0.9411200
1205.731 1.020342
1206.213 0.6276260
1206.695 0.1568720
1207.177 0.1006030
1207.659 0.3757840
1208.141 0.6737610
1208.624 0.9420990
1209.106 1.083305
1209.588 1.046034
1210.070 0.9207190
1210.552 0.5774750
1211.034 0.3259090
1211.516 0.4130670
1211.998 0.5836600
1212.480 0.5526640
1212.963 0.3994500
1213.445 0.4576340
1213.927 0.8344540
1214.409 0.8231300
1214.891 0.2454260
1215.373 2.9514000E-02
1215.855 0.4185920
1216.337 0.8670580
1216.819 1.112101
1217.302 1.127762
1217.784 0.8287850
1218.266 0.3622630
1218.748 0.1737980
1219.230 0.2331160
1219.712 0.4688130
1220.194 0.8134840
1220.676 0.9581510
1221.159 0.8543190
1221.641 0.6712820
1222.123 0.4947660
1222.605 0.3927520
1223.087 0.4913810
1223.569 0.6423050
1224.051 0.7099290
1224.533 0.6993920
1225.016 0.6066820
1225.498 0.4511740
1225.980 0.1931610
1226.462 0.1174930
1226.944 0.1847860
1227.426 0.2100890
1227.908 0.2239082
1228.390 0.4296380
1228.872 0.3531460
1229.354 0.5016990
1229.837 0.6845530
1230.319 0.7770310
1230.801 0.7843230
1231.283 0.7135300
1231.765 0.5654640
1232.247 0.4583230
1232.729 0.3864040
1233.211 0.3869500
1233.694 0.4790990
1234.176 0.5918350
1234.658 0.7195870
1235.140 0.7804280
1235.622 0.6972240
1236.104 0.5653880
1236.586 0.5614780
1237.068 0.6355710
1237.551 0.5438080
1238.033 0.3250260
1238.515 0.1344010
1238.997 4.5380001E-03
1239.479 7.1877003E-02
1239.961 6.6863999E-02
1240.443 3.7392002E-02
1240.925 2.1435000E-02
1241.407 5.3907000E-02
1241.890 0.3486670
1242.372 0.6465840
1242.854 0.7397170
1243.336 0.7059840
1243.818 0.5862260
1244.300 0.4527090
1244.782 0.4399740
1245.264 0.5611000
1245.746 0.6634940
1246.229 0.6911410
1246.711 0.7231220
1247.193 0.7935030
1247.675 0.8314420
1248.157 0.8024500
1248.639 0.7435300
1249.121 0.6529140
1249.603 0.5755370
1250.085 0.6125430
1250.568 0.7464660
1251.050 0.6951180
1251.532 0.6817890
1252.014 0.6794570
1252.496 0.4972650
1252.978 0.5469720
1253.460 0.3824210
1253.942 0.2066800
1254.425 0.1608830
1254.907 0.1834220
1255.389 0.1892470
1255.871 0.1809290
1256.353 0.2414360
1256.835 0.3789880
1257.317 0.5524830
1257.799 0.6937030
1258.281 0.5942210
1258.764 0.2738320
1259.246 9.6844003E-02
1259.728 0.2808420
1260.210 0.3964840
1260.692 0.1128230
1261.174 0.1118910
1261.656 3.2044999E-02
1262.138 0.1424100
1262.620 0.2982790
1263.103 0.4432720
1263.585 0.5375230
1264.067 0.5744040
1264.549 0.6479400
1265.031 0.6510510
1265.513 0.6019150
1265.995 0.6203080
1266.477 0.4682660
1266.960 0.4151120
1267.442 0.3992290
1267.924 0.3875430
1268.406 0.3839440
1268.888 0.3840070
1269.370 0.4126030
1269.852 0.5967120
1270.334 0.8269310
1270.817 0.7658140
1271.299 0.5065400
1271.781 0.2781030
1272.263 0.1332650
1272.745 0.1501370
1273.227 0.2697600
1273.709 0.3976170
1274.191 0.4658660
1274.673 0.4725230
1275.156 0.4031770
1275.638 0.3153610
1276.120 0.1803820
1276.602 9.9628001E-02
1277.084 0.2576660
1277.566 0.5541360
1278.048 0.6536660
1278.530 0.5353890
1279.012 0.3695240
1279.495 0.1532860
1279.977 1.9321000E-02
1280.459 1.3256000E-02
1280.941 2.0414000E-02
1281.423 0.1190300
1281.905 0.2178230
1282.387 0.2726290
1282.869 0.2640950
1283.352 0.2083530
1283.834 0.1153320
1284.316 4.1113000E-02
1284.798 0.0000000E+00
