#Shining_header
#Data type:raman_database
#CAS:Not entered
#Material scientific name:Arsentsumebite
#Manufacturer:Not entered
#Laser model:Not entered
#Spectrometer model:Not entered
#Testing unit:Not entered
#Test time:Not entered
#Other experimental details:Not entered
#Shining_data
113.2559 0.0000000E+00
113.7380 51.58789
114.2202 2.847656
114.7023 35.37598
115.1844 133.9912
115.6665 220.6064
116.1486 245.8174
116.6307 214.0781
117.1129 195.6895
117.5950 192.0527
118.0771 198.8271
118.5592 222.1387
119.0413 263.7256
119.5234 294.0518
120.0056 272.5049
120.4877 215.9170
120.9698 171.6953
121.4519 155.4004
121.9340 161.0742
122.4161 175.1895
122.8982 195.0596
123.3804 227.2471
123.8625 282.1494
124.3446 354.9414
124.8267 421.4590
125.3088 472.0410
125.7909 508.8369
126.2731 506.4365
126.7552 398.4199
127.2373 291.5215
127.7194 240.4775
128.2015 253.3838
128.6837 300.0850
129.1658 337.0137
129.6479 356.0596
130.1300 375.9648
130.6121 417.3779
131.0942 453.0654
131.5764 448.6748
132.0585 390.7070
132.5406 300.0605
133.0227 248.5674
133.5048 283.1113
133.9869 308.1123
134.4691 319.2871
134.9512 311.9258
135.4333 281.0264
135.9154 218.5557
136.3975 127.7705
136.8796 67.48242
137.3618 44.64258
137.8439 38.86035
138.3260 40.47949
138.8081 49.45508
139.2902 72.82910
139.7723 128.1035
140.2545 211.8662
140.7366 250.8525
141.2187 201.7461
141.7008 123.0938
142.1829 80.78516
142.6650 84.99414
143.1472 105.4385
143.6293 104.4141
144.1114 84.06738
144.5935 76.91699
145.0756 100.9814
145.5577 144.2168
146.0399 176.5859
146.5220 194.0869
147.0041 196.4697
147.4862 178.4814
147.9683 140.4229
148.4504 106.4941
148.9326 101.9385
149.4147 129.9209
149.8968 153.5303
150.3789 165.8506
150.8610 173.0020
151.3431 169.2490
151.8252 157.2051
152.3074 151.9746
152.7895 191.0996
153.2716 329.7129
153.7537 396.1748
154.2358 338.9961
154.7179 246.2998
155.2001 185.0518
155.6822 200.9736
156.1643 266.6787
156.6464 319.1143
157.1285 375.6211
157.6106 409.6895
158.0928 408.8164
158.5749 387.8242
159.0570 360.7578
159.5391 331.7998
160.0212 311.4639
160.5033 324.5801
160.9855 375.3730
161.4676 435.6406
161.9497 455.3047
162.4318 434.4941
162.9139 434.9268
163.3960 490.4912
163.8782 609.8330
164.3603 662.2695
164.8424 578.0049
165.3245 463.6973
165.8066 403.6240
166.2887 403.9053
166.7709 425.3447
167.2530 423.2422
167.7351 400.8818
168.2172 393.2539
168.6993 426.7422
169.1814 466.6631
169.6636 460.3496
170.1457 389.6543
170.6278 315.0811
171.1099 328.3105
171.5920 405.7100
172.0741 447.9932
172.5563 377.9648
173.0384 239.9131
173.5205 173.0107
174.0026 240.4248
174.4847 325.9248
174.9668 315.1572
175.4490 215.7441
175.9311 122.5156
176.4132 110.1367
176.8953 176.0674
177.3774 231.8789
177.8595 254.6152
178.3417 269.0010
178.8238 295.9980
179.3059 336.5381
179.7880 367.9092
180.2701 357.1182
180.7522 289.6191
181.2344 240.6152
181.7165 231.6953
182.1986 237.6367
182.6807 247.5781
183.1628 258.0400
183.6449 265.8076
184.1271 264.2676
184.6092 247.4414
185.0913 233.0596
185.5734 231.0723
186.0555 227.9883
186.5376 206.8477
187.0198 160.8799
187.5019 105.6973
187.9840 82.15332
188.4661 132.3770
188.9482 163.0049
189.4303 153.8086
189.9125 125.5439
190.3946 105.2305
190.8767 107.1074
191.3588 123.1045
191.8409 113.4883
192.3230 32.21387
192.8052 23.51172
193.2873 16.35840
193.7694 27.09961
194.2515 57.67188
194.7336 43.26855
195.2157 8.918945
195.6979 27.33984
196.1800 23.37500
196.6621 63.59375
197.1442 51.94727
197.6263 2.458008
198.1084 38.51367
198.5906 36.88770
199.0727 3.839844
199.5548 24.93262
200.0369 9.643555
200.5190 8.959961
201.0011 14.38379
201.4833 6.095703
201.9654 13.16016
202.4475 49.44727
202.9296 98.10059
203.4117 122.2314
203.8938 101.2383
204.3760 67.20508
204.8581 53.31738
205.3402 62.60938
205.8223 63.66895
206.3044 13.51855
206.7865 68.86816
207.2687 112.9512
207.7508 62.06836
208.2329 17.98926
208.7150 26.29297
209.1971 60.97852
209.6792 148.9150
210.1614 145.0605
210.6435 81.87207
211.1256 30.66895
211.6077 28.70117
212.0898 55.14258
212.5719 61.58984
213.0541 35.08691
213.5362 11.38574
214.0183 22.25879
214.5004 55.72070
214.9825 81.79199
215.4646 87.04492
215.9468 72.46191
216.4289 37.67969
216.9110 37.97266
217.3931 104.4297
217.8752 137.7363
218.3573 141.5811
218.8395 126.9766
219.3216 81.63281
219.8037 11.32812
220.2858 6.395508
220.7679 86.82227
221.2500 172.7832
221.7322 190.6807
222.2143 152.9326
222.6964 105.4600
223.1785 84.54004
223.6606 91.26465
224.1427 97.65918
224.6249 103.9580
225.1070 109.6514
225.5891 112.7344
226.0712 114.4424
226.5533 118.6719
227.0354 130.0361
227.5176 150.0938
227.9997 165.7861
228.4818 169.8457
228.9639 175.4219
229.4460 191.0605
229.9281 214.3975
230.4103 235.5869
230.8924 243.4902
231.3745 234.9492
231.8566 229.2900
232.3387 223.8770
232.8208 222.8936
233.3030 233.2920
233.7851 252.0811
234.2672 267.7617
234.7493 266.5498
235.2314 241.6738
235.7135 223.0791
236.1957 205.4014
236.6778 196.8799
237.1599 209.5254
237.6420 239.8652
238.1241 268.9961
238.6062 272.0977
239.0884 232.5605
239.5705 223.7676
240.0526 280.7373
240.5347 335.6709
241.0168 343.3086
241.4989 302.0430
241.9811 244.2324
242.4632 206.9531
242.9453 198.7139
243.4274 186.2256
243.9095 162.8887
244.3916 140.7139
244.8738 128.6895
245.3559 126.9922
245.8380 127.2627
246.3201 118.3164
246.8022 90.06348
247.2843 87.81934
247.7665 135.2451
248.2486 189.2637
248.7307 217.6465
249.2128 217.3730
249.6949 208.1865
250.1770 212.1992
250.6592 234.7432
251.1413 247.3428
251.6234 254.4775
252.1055 250.8594
252.5876 225.9365
253.0697 179.2109
253.5519 130.1182
254.0340 102.4404
254.5161 97.87891
254.9982 105.3945
255.4803 131.8516
255.9624 162.1377
256.4445 194.8926
256.9267 230.0439
257.4088 250.9004
257.8909 233.4473
258.3730 163.1270
258.8551 134.2705
259.3372 184.8516
259.8194 254.4199
260.3015 298.1328
260.7836 309.6230
261.2657 298.4346
261.7478 266.5488
262.2299 208.8193
262.7121 179.6787
263.1942 219.3623
263.6763 262.5859
264.1584 243.0264
264.6405 153.3223
265.1227 58.95801
265.6048 24.26855
266.0869 56.70020
266.5690 87.06738
267.0511 101.8828
267.5332 113.3330
268.0154 148.6240
268.4975 210.5723
268.9796 257.2998
269.4617 239.9678
269.9438 158.1650
270.4259 120.0869
270.9081 164.6855
271.3902 231.6895
271.8723 277.7119
272.3544 298.8193
272.8365 300.3555
273.3186 280.4248
273.8008 243.2344
274.2829 224.9326
274.7650 245.9346
275.2471 270.5020
275.7292 265.7480
276.2113 233.8857
276.6935 213.6621
277.1756 236.7139
277.6577 296.1328
278.1398 335.4531
278.6219 329.5332
279.1040 327.1885
279.5862 376.3496
280.0683 469.4961
280.5504 544.5146
281.0325 558.4102
281.5146 522.7002
281.9967 499.0098
282.4789 484.2305
282.9610 483.5127
283.4431 512.9990
283.9252 565.8232
284.4073 601.9580
284.8894 597.1299
285.3716 561.0674
285.8537 528.1436
286.3358 481.9844
286.8179 458.6719
287.3000 486.9512
287.7821 558.1279
288.2643 640.3652
288.7464 729.3525
289.2285 811.5537
289.7106 854.5830
290.1927 836.0342
290.6748 822.3486
291.1570 849.9521
291.6391 908.4395
292.1212 966.0088
292.6033 1010.662
293.0854 1047.265
293.5675 1086.655
294.0497 1132.012
294.5318 1172.750
295.0139 1202.456
295.4960 1224.697
295.9781 1246.276
296.4602 1267.915
296.9424 1292.340
297.4245 1325.378
297.9066 1367.729
298.3887 1412.814
298.8708 1454.450
299.3529 1497.771
299.8351 1557.738
300.3172 1643.445
300.7993 1728.464
301.2814 1763.775
301.7635 1742.126
302.2456 1748.492
302.7278 1821.665
303.2099 1926.764
303.6920 2020.608
304.1741 2095.451
304.6562 2153.205
305.1383 2192.112
305.6205 2211.291
306.1026 2231.229
306.5847 2254.783
307.0668 2279.979
307.5489 2304.554
308.0310 2328.428
308.5132 2354.086
308.9953 2387.779
309.4774 2429.248
309.9595 2450.725
310.4416 2429.252
310.9237 2402.633
311.4059 2399.802
311.8880 2421.823
312.3701 2456.459
312.8522 2498.729
313.3343 2547.160
313.8164 2584.674
314.2986 2594.545
314.7807 2608.431
315.2628 2656.957
315.7449 2730.372
316.2270 2785.172
316.7091 2791.584
317.1913 2757.380
317.6734 2730.299
318.1555 2705.302
318.6376 2691.053
319.1197 2699.322
319.6018 2721.090
320.0840 2734.648
320.5661 2729.150
321.0482 2710.210
321.5303 2699.647
322.0124 2725.790
322.4945 2723.150
322.9767 2643.776
323.4588 2535.141
323.9409 2472.594
324.4230 2486.149
324.9051 2542.185
325.3872 2574.400
325.8694 2570.455
326.3515 2563.906
326.8336 2562.881
327.3157 2557.285
327.7978 2530.846
328.2799 2480.653
328.7621 2427.222
329.2442 2399.815
329.7263 2415.955
330.2084 2415.420
330.6905 2381.088
331.1726 2343.159
331.6548 2331.272
332.1369 2344.216
332.6190 2348.645
333.1011 2304.776
333.5832 2196.056
334.0653 2141.431
334.5475 2198.337
335.0296 2245.947
335.5117 2205.547
335.9938 2098.404
336.4759 2005.130
336.9580 1994.276
337.4402 2064.235
337.9223 2086.113
338.4044 2020.781
338.8865 1953.805
339.3686 1909.703
339.8507 1878.399
340.3329 1837.617
340.8150 1771.269
341.2971 1686.592
341.7792 1628.724
342.2613 1631.214
342.7434 1619.492
343.2256 1579.087
343.7077 1523.597
344.1898 1465.228
344.6719 1411.208
345.1540 1365.688
345.6361 1333.289
346.1183 1320.906
346.6004 1294.413
347.0825 1243.184
347.5646 1189.839
348.0467 1153.513
348.5288 1136.233
349.0110 1118.771
349.4931 1068.479
349.9752 966.4604
350.4573 906.6025
350.9394 952.8623
351.4215 989.6831
351.9037 953.1538
352.3858 852.7886
352.8679 744.1685
353.3500 672.7656
353.8321 635.3506
354.3142 615.5718
354.7964 639.7036
355.2785 650.0410
355.7606 610.1367
356.2427 541.7832
356.7248 488.1104
357.2069 475.7451
357.6891 491.6372
358.1712 506.5039
358.6533 532.8066
359.1354 529.2017
359.6175 451.6084
360.0996 347.4775
360.5818 268.6655
361.0639 231.5479
361.5460 226.1782
362.0281 254.9092
362.5102 325.9731
362.9923 360.3955
363.4745 302.1953
363.9566 214.5234
364.4387 159.1973
364.9208 144.7354
365.4029 143.0752
365.8850 134.5596
366.3672 121.0308
366.8493 111.4741
367.3314 106.0996
367.8135 108.4233
368.2956 128.0312
368.7777 163.2437
369.2599 186.7300
369.7420 185.0229
370.2241 165.1216
370.7062 135.7354
371.1883 96.15527
371.6704 56.12744
372.1526 19.96729
372.6347 10.90771
373.1168 28.08789
373.5989 29.10791
374.0810 17.22070
374.5631 14.97607
375.0453 63.46338
375.5274 98.33691
376.0095 100.6182
376.4916 75.24023
376.9737 47.34668
377.4558 1.388184
377.9380 29.66406
378.4201 26.11475
378.9022 0.1416020
379.3843 26.64355
379.8664 46.32178
380.3485 59.73486
380.8307 68.44727
381.3128 74.61035
381.7949 71.69189
382.2770 49.91650
382.7591 23.96484
383.2412 5.032715
383.7234 3.746582
384.2055 0.4824220
384.6876 17.67432
385.1697 53.24805
385.6518 94.49072
386.1339 168.8120
386.6161 223.0405
387.0982 211.6904
387.5803 154.9248
388.0624 115.0771
388.5445 143.5264
389.0266 229.1836
389.5088 250.9121
389.9909 134.6133
390.4730 35.59082
390.9551 15.69775
391.4372 36.27344
391.9193 48.51709
392.4015 62.09375
392.8836 72.43848
393.3657 68.34619
393.8478 41.80566
394.3299 20.49707
394.8120 4.985840
395.2942 2.225586
395.7763 4.944824
396.2584 25.86035
396.7405 47.70947
397.2226 63.97998
397.7047 74.75781
398.1869 56.89111
398.6690 14.41943
399.1511 87.80176
399.6332 147.3081
400.1153 187.1147
400.5974 192.0474
401.0796 136.0034
401.5617 44.82959
402.0438 30.57715
402.5259 94.09277
403.0080 126.1602
403.4901 93.41260
403.9723 27.68262
404.4544 24.51465
404.9365 53.56543
405.4186 70.77197
405.9007 80.64648
406.3828 84.87695
406.8650 93.39502
407.3471 111.3071
407.8292 132.9307
408.3113 154.2617
408.7934 181.7759
409.2755 182.6523
409.7577 115.6392
410.2398 27.99512
410.7219 9.539551
411.2040 15.67188
411.6861 57.88379
412.1682 73.00146
412.6504 56.94189
413.1325 41.58838
413.6146 19.43311
414.0967 4.857422
414.5788 6.168945
415.0609 21.99121
415.5431 50.89990
416.0252 95.54248
416.5073 146.9756
416.9894 162.9629
417.4715 101.6572
417.9536 54.58350
418.4358 25.96924
418.9179 18.04541
419.4000 36.85840
419.8821 82.89111
420.3642 143.3115
420.8463 199.9644
421.3285 252.8286
421.8106 301.2573
422.2927 358.2505
422.7748 399.6748
423.2569 394.5386
423.7390 358.5327
424.2212 344.3325
424.7033 404.7422
425.1854 522.7290
425.6675 588.2295
426.1496 567.1431
426.6317 550.0786
427.1139 565.9756
427.5960 607.4683
428.0781 668.3604
428.5602 750.3076
429.0423 841.2588
429.5244 934.8984
430.0066 1032.462
430.4887 1107.782
430.9708 1144.762
431.4529 1163.537
431.9350 1179.843
432.4171 1193.823
432.8993 1233.330
433.3814 1340.092
433.8635 1476.009
434.3456 1561.309
434.8277 1576.894
435.3098 1585.388
435.7920 1645.293
436.2741 1753.313
436.7562 1839.311
437.2383 1877.181
437.7204 1913.188
438.2025 1989.532
438.6847 2088.022
439.1668 2153.753
439.6489 2157.614
440.1310 2118.168
440.6131 2085.025
441.0952 2060.569
441.5774 2038.857
442.0595 2028.237
442.5416 2015.299
443.0237 1986.284
443.5058 1939.721
443.9879 1884.658
444.4701 1827.589
444.9522 1764.696
445.4343 1729.036
445.9164 1767.043
446.3985 1785.642
446.8806 1754.540
447.3628 1682.148
447.8449 1584.079
448.3270 1463.666
448.8091 1333.537
449.2912 1222.609
449.7733 1128.709
450.2555 1063.108
450.7376 1052.989
451.2197 1058.603
451.7018 1055.751
452.1839 1039.586
452.6660 1008.711
453.1482 945.2065
453.6303 860.7080
454.1124 818.2944
454.5945 840.5522
455.0766 870.8096
455.5587 860.7129
456.0409 822.1113
456.5230 784.0654
457.0051 751.5845
457.4872 716.5405
457.9693 664.7793
458.4514 600.1221
458.9336 548.0640
459.4156 523.1826
459.8978 514.4966
460.3799 498.6553
460.8620 482.7070
461.3441 458.7085
461.8262 410.3433
462.3083 357.6763
462.7905 323.2104
463.2726 311.2236
463.7547 314.1167
464.2368 326.7622
464.7189 352.7007
465.2010 357.5654
465.6832 316.1230
466.1653 281.0947
466.6474 268.9165
467.1295 274.7954
467.6116 297.1206
468.0938 338.2036
468.5759 371.7017
469.0580 329.3916
469.5401 161.6807
470.0222 55.44434
470.5043 95.83350
470.9865 169.6079
471.4686 213.6367
471.9507 220.8628
472.4328 211.2197
472.9149 188.4565
473.3970 159.0630
473.8792 152.9814
474.3613 181.1846
474.8434 204.3179
475.3255 186.4927
475.8076 145.4590
476.2897 119.0674
476.7719 121.7593
477.2540 129.7061
477.7361 122.8853
478.2182 106.8774
478.7003 102.4292
479.1824 119.9307
479.6646 139.4839
480.1467 125.6562
480.6288 61.48682
481.1109 32.54102
481.5930 73.24268
482.0751 116.0933
482.5573 104.5811
483.0394 48.42920
483.5215 4.617188
484.0036 17.52148
484.4857 75.04639
484.9678 95.78125
485.4500 33.69922
485.9321 4.689453
486.4142 2.308594
486.8963 34.72510
487.3784 87.66699
487.8605 149.2471
488.3427 190.6436
488.8248 159.8447
489.3069 52.26172
489.7890 13.22949
490.2711 8.852539
490.7532 10.32910
491.2354 3.111816
491.7175 26.94092
492.1996 4.470703
492.6817 129.8589
493.1638 275.1709
493.6459 294.3291
494.1281 196.5742
494.6102 109.1592
495.0923 75.94238
495.5744 83.11182
496.0565 117.0264
496.5386 189.9702
497.0208 232.0879
497.5029 193.4048
497.9850 137.1948
498.4671 135.0889
498.9492 187.2661
499.4313 239.3091
499.9135 247.9438
500.3956 216.3687
500.8777 191.3115
501.3598 179.5220
501.8419 170.0093
502.3240 163.8462
502.8062 157.8623
503.2883 142.9331
503.7704 118.2373
504.2525 102.1733
504.7346 130.8008
505.2167 216.5356
505.6989 254.5679
506.1810 206.8618
506.6631 150.5698
507.1452 122.9751
507.6273 114.9868
508.1094 103.0928
508.5916 69.93750
509.0737 37.33643
509.5558 40.26270
510.0379 77.43164
510.5200 113.2266
511.0021 138.8198
511.4843 153.1948
511.9664 149.7661
512.4485 124.7515
512.9306 111.9722
513.4127 141.9062
513.8948 173.9688
514.3770 153.7329
514.8591 87.02295
515.3412 40.17969
515.8233 66.49170
516.3054 148.4629
516.7875 172.4917
517.2697 71.12598
517.7518 5.820801
518.2339 47.18408
518.7160 56.09375
519.1981 22.43896
519.6802 48.89307
520.1624 119.9604
520.6445 148.2109
521.1266 132.8315
521.6087 109.3740
522.0908 61.88086
522.5729 30.86523
523.0551 37.44629
523.5372 68.87109
524.0193 109.9448
524.5014 165.6265
524.9835 207.7749
525.4656 198.4365
525.9478 147.2915
526.4299 102.2251
526.9120 72.46680
527.3941 60.04053
527.8762 77.86475
528.3583 128.4463
528.8405 151.2529
529.3226 112.2935
529.8047 69.08350
530.2868 64.88867
530.7689 88.19678
531.2510 97.89941
531.7332 71.02490
532.2153 31.38037
532.6974 42.32568
533.1795 161.8091
533.6616 225.2388
534.1437 197.7437
534.6259 147.6978
535.1080 110.7822
535.5901 90.00977
536.0722 77.33350
536.5543 72.37061
537.0364 68.29443
537.5186 33.43066
538.0007 49.90869
538.4828 96.21582
538.9649 39.98975
539.4470 50.75928
539.9291 96.10059
540.4113 85.67041
540.8934 66.19287
541.3755 47.68652
541.8576 39.97510
542.3397 72.97461
542.8218 146.9355
543.3040 191.3950
543.7861 141.2622
544.2682 14.99072
544.7503 42.60742
545.2324 18.59326
545.7145 74.41406
546.1967 101.5332
546.6788 110.8936
547.1609 110.2603
547.6430 101.8721
548.1251 94.84229
548.6072 98.15723
549.0894 110.4673
549.5715 120.7217
550.0536 136.4658
550.5357 146.3560
551.0178 147.6919
551.4999 138.9658
551.9821 112.8159
552.4642 60.84766
552.9463 16.42871
553.4284 23.41064
553.9105 66.77051
554.3926 82.20947
554.8748 52.15869
555.3569 13.12354
555.8390 0.4326170
556.3211 11.23682
556.8032 15.60645
557.2853 18.24414
557.7675 27.82373
558.2496 39.96143
558.7317 146.2637
559.2138 226.2119
559.6959 256.0811
560.1780 252.5566
560.6602 236.7725
561.1423 203.0132
561.6244 180.1196
562.1065 186.3418
562.5886 186.0449
563.0707 159.4019
563.5529 118.5498
564.0350 85.73438
564.5171 70.83594
564.9992 66.80908
565.4813 64.09521
565.9634 63.09473
566.4456 72.33447
566.9277 99.60693
567.4098 127.8223
567.8919 134.7749
568.3740 122.7505
568.8561 116.0693
569.3383 132.2319
569.8204 141.9893
570.3025 110.5161
570.7846 57.99609
571.2667 40.84668
571.7488 83.34131
572.2310 145.5586
572.7131 150.4819
573.1952 58.64209
573.6773 16.96094
574.1594 55.69434
574.6415 112.6143
575.1237 178.7520
575.6058 237.1753
576.0879 263.3057
576.5700 243.9717
577.0521 201.7495
577.5342 162.2266
578.0164 123.3667
578.4985 91.47412
578.9806 65.66943
579.4627 51.25195
579.9448 51.93066
580.4269 66.68311
580.9091 102.6133
581.3912 202.7471
581.8733 287.0234
582.3554 282.2046
582.8375 217.4697
583.3196 168.8447
583.8018 168.3218
584.2839 197.7490
584.7660 227.9614
585.2481 270.2070
585.7302 277.2207
586.2123 214.1680
586.6945 153.2261
587.1766 123.7832
587.6587 118.9824
588.1408 120.0498
588.6229 116.3550
589.1050 116.8994
589.5872 142.2866
590.0693 191.5952
590.5514 222.0811
591.0335 216.6436
591.5156 197.7422
591.9977 186.1758
592.4799 181.8667
592.9620 186.1226
593.4441 202.4434
593.9262 224.9287
594.4083 261.1924
594.8904 298.5112
595.3726 306.6519
595.8547 272.2749
596.3368 221.9321
596.8189 199.5659
597.3010 210.6094
597.7831 228.5435
598.2653 267.8516
598.7474 291.5820
599.2295 277.4331
599.7116 246.2222
600.1937 227.9272
600.6758 233.1118
601.1580 253.7480
601.6401 295.1143
602.1222 347.8350
602.6043 360.6055
603.0864 322.9585
603.5685 280.4023
604.0507 274.9600
604.5328 302.2271
605.0149 313.1050
605.4970 289.9600
605.9791 271.4619
606.4612 272.9712
606.9434 286.1279
607.4255 303.4829
607.9076 321.7192
608.3897 333.1304
608.8718 326.4077
609.3539 303.2827
609.8361 297.2690
610.3182 327.8354
610.8003 340.2808
611.2824 291.7969
611.7645 232.2124
612.2466 220.5659
612.7288 269.6792
613.2109 317.4746
613.6930 314.1099
614.1751 286.5117
614.6572 289.3428
615.1393 325.1489
615.6215 349.4399
616.1036 333.4614
616.5857 288.6416
617.0678 261.0049
617.5499 268.5078
618.0320 268.4033
618.5142 252.4111
618.9963 233.2051
619.4784 212.4517
619.9605 196.3467
620.4426 204.7119
620.9247 262.9629
621.4069 337.8867
621.8890 327.8672
622.3711 214.0742
622.8532 128.3130
623.3353 120.0757
623.8174 137.3867
624.2996 120.3179
624.7817 72.09766
625.2638 46.67920
625.7459 75.00635
626.2280 117.2715
626.7101 151.7329
627.1923 174.7715
627.6744 177.2090
628.1565 154.9189
628.6386 122.5273
629.1207 103.9805
629.6028 103.2583
630.0850 102.1572
630.5671 112.0664
631.0492 108.2036
631.5313 56.16553
632.0134 5.448730
632.4955 10.30957
632.9777 71.83301
633.4598 158.5869
633.9419 156.5742
634.4240 93.25244
634.9061 65.69482
635.3882 91.10938
635.8704 117.9521
636.3525 104.5996
636.8346 59.45166
637.3167 37.20410
637.7988 47.14746
638.2809 63.43066
638.7631 94.60352
639.2452 124.3535
639.7273 140.2651
640.2094 139.5815
640.6915 118.8887
641.1736 65.60645
641.6558 0.8872070
642.1379 0.4877930
642.6200 87.09180
643.1021 153.0957
643.5842 164.6602
644.0663 143.0039
644.5485 101.3345
645.0306 41.51855
645.5127 5.775391
645.9948 35.79102
646.4769 71.20068
646.9590 54.25928
647.4412 4.095215
647.9233 26.52246
648.4054 17.07764
648.8875 12.30322
649.3696 49.26807
649.8517 102.5767
650.3339 123.2026
650.8160 71.31592
651.2981 34.21289
651.7802 57.96680
652.2623 105.9043
652.7444 128.1509
653.2266 112.9116
653.7087 79.94385
654.1908 27.69385
654.6729 27.52539
655.1550 48.63965
655.6371 31.87158
656.1193 7.873047
656.6014 68.75830
657.0835 138.8691
657.5656 172.5830
658.0477 120.1377
658.5298 96.54004
659.0120 139.5620
659.4941 182.3945
659.9762 171.8862
660.4583 117.9541
660.9404 67.28271
661.4225 47.81104
661.9047 50.30518
662.3868 64.34521
662.8689 91.05225
663.3510 104.3755
663.8331 87.77393
664.3152 74.39746
664.7974 112.9502
665.2795 198.7007
665.7616 225.2427
666.2437 124.5503
666.7258 38.30469
667.2079 32.41650
667.6901 63.41162
668.1722 75.70996
668.6543 59.12451
669.1364 39.98438
669.6185 39.70312
670.1006 58.02588
670.5828 109.5928
671.0649 219.2671
671.5470 285.4678
672.0291 239.0942
672.5112 156.2944
672.9933 127.4331
673.4755 155.7554
673.9576 185.1416
674.4397 200.2886
674.9218 211.1104
675.4039 230.8618
675.8860 248.7134
676.3682 234.7437
676.8503 179.2046
677.3324 119.9185
677.8145 117.2017
678.2966 181.4888
678.7787 227.9673
679.2609 259.0566
679.7430 264.3550
680.2251 221.7183
680.7072 160.6445
681.1893 115.6689
681.6714 91.75732
682.1536 87.33447
682.6357 119.5894
683.1178 160.6333
683.5999 166.7163
684.0820 141.3140
684.5641 123.6167
685.0463 136.2695
685.5284 163.7158
686.0105 169.3223
686.4926 144.4727
686.9747 118.1738
687.4568 73.42432
687.9390 44.12988
688.4211 53.02832
688.9032 85.73438
689.3853 116.0054
689.8674 136.0688
690.3495 148.4683
690.8317 153.9585
691.3138 154.0454
691.7959 155.4819
692.2780 158.8350
692.7601 157.9438
693.2422 149.0068
693.7244 132.4419
694.2065 108.2837
694.6886 51.80811
695.1707 28.86035
695.6528 72.43066
696.1349 120.0239
696.6171 126.1650
697.0992 104.6206
697.5813 101.4258
698.0634 147.5884
698.5455 197.3857
699.0276 188.2188
699.5098 136.3018
699.9919 108.1963
700.4740 119.2007
700.9561 129.0195
701.4382 100.5659
701.9203 41.65820
702.4025 14.45508
702.8846 46.31836
703.3667 73.36914
703.8488 108.0508
704.3309 124.8247
704.8130 80.58838
705.2952 4.069336
705.7773 49.78857
706.2594 10.00586
706.7415 105.1606
707.2236 132.7974
707.7057 101.7168
708.1879 61.23633
708.6700 18.46338
709.1521 10.05566
709.6342 2.889160
710.1163 37.75293
710.5984 59.26904
711.0806 38.17529
711.5627 29.73438
712.0448 56.81836
712.5269 86.33496
713.0090 93.87646
713.4911 80.62891
713.9733 59.49268
714.4554 29.57471
714.9375 1.944336
715.4196 4.420898
715.9017 31.63330
716.3839 35.26709
716.8660 2.113281
717.3481 41.77197
717.8302 42.25488
718.3123 3.735352
718.7944 15.38818
719.2766 11.43604
719.7587 5.098145
720.2408 51.26611
720.7229 96.07617
721.2050 108.8779
721.6871 90.74707
722.1693 67.80273
722.6514 60.62598
723.1335 53.48047
723.6156 6.705078
724.0977 70.88281
724.5798 110.7720
725.0620 92.49170
725.5441 51.99756
726.0262 21.20654
726.5083 0.3745120
726.9904 14.52783
727.4725 7.265137
727.9547 9.669922
728.4368 43.76807
728.9189 77.88184
729.4010 80.63135
729.8831 53.36768
730.3652 21.02686
730.8474 9.365723
731.3295 28.11377
731.8116 8.940430
732.2937 38.16895
732.7758 60.07715
733.2579 41.45361
733.7401 9.255371
734.2222 13.11377
734.7043 25.32520
735.1864 19.78809
735.6685 28.66943
736.1506 61.67578
736.6328 73.58496
737.1149 66.98779
737.5970 29.36328
738.0791 28.58301
738.5612 62.96631
739.0433 33.99756
739.5255 7.752441
740.0076 0.9702150
740.4897 45.69531
740.9718 80.46387
741.4539 94.80176
741.9360 99.41455
742.4182 104.7065
742.9003 108.9209
743.3824 93.06982
743.8645 13.52344
744.3466 9.868652
744.8287 97.35352
745.3109 209.9761
745.7930 236.4429
746.2751 193.8901
746.7572 160.4360
747.2393 168.8232
747.7214 189.2744
748.2036 201.6509
748.6857 207.4590
749.1678 208.3867
749.6499 205.1914
750.1320 198.5688
750.6141 186.6230
751.0963 175.7505
751.5784 193.8921
752.0605 252.8579
752.5426 307.6621
753.0247 363.5664
753.5068 403.4902
753.9890 397.3247
754.4711 366.2500
754.9532 369.9243
755.4353 440.2588
755.9174 511.0820
756.3995 561.4028
756.8817 586.3223
757.3638 566.7520
757.8459 512.1401
758.3280 464.0332
758.8101 448.7437
759.2922 452.2969
759.7744 433.9551
760.2565 384.7969
760.7386 406.3438
761.2207 545.2627
761.7028 679.1768
762.1849 728.3662
762.6671 716.8389
763.1492 704.3037
763.6313 685.4531
764.1134 684.5654
764.5955 720.3970
765.0776 756.7559
765.5598 754.0830
766.0419 731.7725
766.5240 742.6904
767.0061 809.9023
767.4882 890.0654
767.9703 926.5127
768.4525 924.0913
768.9346 906.6255
769.4167 870.1714
769.8988 869.4492
770.3809 946.8945
770.8630 1056.442
771.3452 1102.185
771.8273 1041.441
772.3094 1042.836
772.7915 1167.575
773.2736 1283.137
773.7557 1329.111
774.2379 1336.496
774.7200 1350.830
775.2021 1381.231
775.6842 1404.406
776.1663 1381.542
776.6484 1352.039
777.1306 1394.827
777.6127 1495.190
778.0948 1568.406
778.5769 1582.619
779.0590 1585.837
779.5411 1643.461
780.0233 1757.874
780.5054 1817.130
780.9875 1760.299
781.4696 1751.172
781.9517 1852.869
782.4338 1993.854
782.9160 2130.640
783.3981 2257.919
783.8802 2362.347
784.3623 2424.835
784.8444 2477.729
785.3265 2533.278
785.8087 2597.798
786.2908 2687.586
786.7729 2800.532
787.2550 2910.070
787.7371 2993.306
788.2192 3062.097
788.7014 3147.456
789.1835 3249.530
789.6656 3358.457
790.1477 3473.046
790.6298 3587.840
791.1119 3701.980
791.5941 3814.057
792.0762 3917.669
792.5583 3990.836
793.0404 4088.990
793.5225 4251.336
794.0046 4410.687
794.4868 4513.534
794.9689 4577.586
795.4510 4649.525
795.9331 4746.135
796.4152 4861.244
796.8973 5002.934
797.3795 5156.083
797.8616 5281.204
798.3437 5376.661
798.8258 5458.396
799.3079 5531.805
799.7900 5606.440
800.2722 5703.130
800.7543 5835.208
801.2364 5929.980
801.7185 5973.922
802.2006 5997.216
802.6827 5974.796
803.1649 5958.696
803.6470 6028.117
804.1291 6190.040
804.6112 6302.606
805.0933 6284.383
805.5754 6225.690
806.0576 6172.839
806.5397 6133.916
807.0218 6122.982
807.5039 6140.429
807.9860 6166.979
808.4681 6187.993
808.9503 6202.443
809.4324 6216.549
809.9145 6233.431
810.3966 6184.048
810.8787 6024.580
811.3608 5872.841
811.8430 5845.052
812.3251 5919.181
812.8072 5929.888
813.2893 5830.357
813.7714 5737.272
814.2535 5658.149
814.7357 5589.772
815.2178 5542.776
815.6999 5502.969
816.1820 5430.620
816.6641 5297.919
817.1462 5193.507
817.6284 5246.165
818.1105 5346.408
818.5926 5292.712
819.0747 5099.692
819.5568 4915.060
820.0389 4807.196
820.5211 4749.702
821.0032 4710.956
821.4853 4693.768
821.9674 4642.984
822.4495 4545.837
822.9316 4447.709
823.4138 4370.857
823.8959 4298.303
824.3780 4205.163
824.8601 4089.478
825.3422 3981.583
825.8243 3874.203
826.3065 3790.570
826.7886 3772.845
827.2707 3763.275
827.7528 3680.429
828.2349 3531.513
828.7170 3410.545
829.1992 3392.385
829.6813 3400.038
830.1633 3326.125
830.6454 3194.948
831.1276 3068.313
831.6097 2958.299
832.0918 2865.447
832.5739 2789.078
833.0560 2729.279
833.5381 2690.777
834.0203 2682.234
834.5024 2654.532
834.9845 2609.515
835.4666 2546.613
835.9487 2448.290
836.4308 2338.208
836.9130 2250.460
837.3951 2189.583
837.8772 2137.474
838.3593 2105.918
838.8414 2065.938
839.3235 1985.614
839.8057 1891.771
840.2878 1826.915
840.7699 1798.723
841.2520 1777.948
841.7341 1742.792
842.2162 1698.608
842.6984 1658.084
843.1805 1618.370
843.6626 1561.144
844.1447 1483.808
844.6268 1412.295
845.1089 1371.333
845.5911 1353.437
846.0732 1318.599
846.5553 1259.532
847.0374 1194.334
847.5195 1105.087
848.0016 1034.924
848.4838 1029.178
848.9659 1055.509
849.4480 1049.944
849.9301 986.9521
850.4122 944.8408
850.8943 977.3857
851.3765 1005.577
851.8586 964.7451
852.3407 883.7539
852.8228 821.5635
853.3049 793.3760
853.7870 770.5288
854.2692 722.1396
854.7513 657.4492
855.2334 603.6123
855.7155 561.0898
856.1976 527.5996
856.6797 502.4165
857.1619 474.5747
857.6440 430.7510
858.1261 378.0991
858.6082 359.2261
859.0903 387.2119
859.5724 409.5454
860.0546 421.6924
860.5367 423.8833
861.0188 406.3662
861.5009 382.2529
861.9830 383.1890
862.4651 424.5791
862.9473 448.3101
863.4294 444.1025
863.9115 421.5767
864.3936 377.7578
864.8757 322.6782
865.3578 263.2202
865.8400 204.0830
866.3221 174.2158
866.8042 217.0210
867.2863 278.8008
867.7684 290.9316
868.2505 264.3374
868.7327 228.1006
869.2148 190.2686
869.6969 153.3276
870.1790 116.7910
870.6611 86.52393
871.1432 89.40723
871.6254 131.9194
872.1075 154.2949
872.5896 143.7339
873.0717 123.1982
873.5538 99.51123
874.0359 80.16504
874.5181 88.24463
875.0002 149.4521
875.4823 180.7681
875.9644 159.5610
876.4465 133.6191
876.9286 120.1035
877.4108 114.1641
877.8929 112.6582
878.3750 113.9434
878.8571 103.7339
879.3392 66.31494
879.8214 23.35303
880.3035 13.69141
880.7856 41.99023
881.2677 61.02246
881.7498 68.28223
882.2319 48.28662
882.7141 17.63867
883.1962 89.43018
883.6783 81.82129
884.1604 9.310059
884.6425 36.79346
885.1246 46.40039
885.6068 22.58545
886.0889 44.30518
886.5710 112.5264
887.0531 93.89941
887.5352 38.66846
888.0173 100.7754
888.4995 50.44043
888.9816 1.548340
889.4637 16.38037
889.9458 13.17383
890.4279 14.44336
890.9100 62.05762
891.3922 77.65771
891.8743 22.07520
892.3564 24.88428
892.8385 27.51318
893.3206 20.00049
893.8027 31.82666
894.2849 60.26074
894.7670 92.93457
895.2491 128.7710
895.7312 145.2358
896.2133 104.0171
896.6954 42.42383
897.1776 17.53076
897.6597 25.71875
898.1418 44.00928
898.6239 63.56836
899.1060 81.21729
899.5881 97.29492
900.0703 107.1152
900.5524 81.84912
901.0345 19.21387
901.5166 24.77881
901.9987 34.44629
902.4808 35.78760
902.9630 52.18262
903.4451 76.22461
903.9272 76.24658
904.4093 38.09717
904.8914 4.724121
905.3735 39.72266
905.8557 59.03369
906.3378 15.92773
906.8199 50.25439
907.3020 83.56006
907.7841 77.45410
908.2662 62.09229
908.7484 41.94580
909.2305 17.29834
909.7126 29.95215
910.1947 70.18018
910.6768 52.77539
911.1589 10.86523
911.6411 45.52246
912.1232 3.723145
912.6053 63.45312
913.0874 51.97070
913.5695 4.252930
914.0516 23.20947
914.5338 25.77490
915.0159 15.80273
915.4980 0.9648440
915.9801 26.80859
916.4622 77.73779
916.9443 143.7427
917.4265 148.8735
917.9086 90.47705
918.3907 36.13477
918.8728 2.625000
919.3549 8.474121
919.8370 8.598145
920.3192 48.38037
920.8013 74.00537
921.2834 82.88184
921.7655 84.13867
922.2476 78.95898
922.7297 65.73438
923.2119 28.03760
923.6940 12.93652
924.1761 17.27930
924.6582 24.16064
925.1403 66.94238
925.6224 117.7090
926.1046 153.6724
926.5867 153.1279
927.0688 140.3291
927.5509 144.2383
928.0330 164.5620
928.5151 176.8784
928.9973 156.4189
929.4794 147.7417
929.9615 209.6499
930.4436 285.4067
930.9257 295.6870
931.4078 250.7622
931.8900 202.0073
932.3721 171.6255
932.8542 164.8413
933.3363 201.9189
933.8184 262.9888
934.3005 292.6475
934.7827 295.2388
935.2648 302.2769
935.7469 322.4341
936.2290 348.8540
936.7111 375.1719
937.1932 403.3271
937.6754 444.1836
938.1575 500.9419
938.6396 537.4126
939.1217 544.5479
939.6038 548.6768
940.0859 566.5088
940.5681 589.1050
941.0502 594.4512
941.5323 573.5762
942.0144 582.9834
942.4965 648.7441
942.9786 705.6216
943.4608 723.9448
943.9429 743.6328
944.4250 805.7983
944.9071 899.5918
945.3892 971.8281
945.8713 1006.546
946.3535 1034.419
946.8356 1039.810
947.3177 1058.413
947.7998 1132.224
948.2819 1230.581
948.7640 1292.861
949.2462 1308.170
949.7283 1337.324
950.2104 1425.006
950.6925 1524.841
951.1746 1598.375
951.6567 1656.705
952.1389 1709.977
952.6210 1758.122
953.1031 1831.360
953.5852 1949.749
954.0673 2080.482
954.5494 2180.071
955.0316 2257.583
955.5137 2324.102
955.9958 2387.813
956.4779 2504.627
956.9600 2695.444
957.4421 2884.273
957.9243 2979.946
958.4064 3006.292
958.8885 3073.637
959.3706 3181.549
959.8527 3297.388
960.3348 3416.407
960.8170 3525.923
961.2991 3620.105
961.7812 3701.553
962.2633 3774.514
962.7454 3651.903
963.2275 3834.889
963.7097 3959.281
964.1918 4026.381
964.6739 3941.782
965.1560 3984.950
965.6381 3939.248
966.1202 3865.447
966.6024 3853.593
967.0845 3602.967
967.5666 3616.664
968.0487 3598.599
968.5308 3550.164
969.0129 3378.121
969.4951 3360.259
969.9772 3282.753
970.4593 3204.288
970.9414 3213.029
971.4235 3059.238
971.9056 3065.455
972.3878 3008.128
972.8699 2977.850
973.3520 2885.479
973.8341 2813.823
974.3162 2573.611
974.7983 2497.077
975.2805 2435.021
975.7626 2237.881
976.2447 2026.112
976.7268 1967.668
977.2089 2009.495
977.6910 2015.001
978.1732 1945.129
978.6553 1840.068
979.1374 1715.463
979.6195 1599.093
980.1016 1561.991
980.5837 1566.102
981.0659 1495.312
981.5480 1341.875
982.0301 1169.917
982.5122 1011.761
982.9943 880.5171
983.4764 801.4033
983.9586 767.4907
984.4407 743.5386
984.9228 729.2446
985.4049 718.1816
985.8870 710.3164
986.3691 688.3711
986.8513 634.6206
987.3334 562.2954
987.8155 508.3340
988.2976 471.9639
988.7797 464.0864
989.2618 496.8906
989.7440 520.0762
990.2261 514.8257
990.7082 487.3193
991.1903 438.6406
991.6724 370.0693
992.1545 327.2920
992.6367 325.5449
993.1188 318.1802
993.6009 288.5801
994.0830 266.7603
994.5651 284.0767
995.0472 316.5078
995.5294 309.9478
996.0115 250.2744
996.4936 214.0298
996.9757 216.9185
997.4578 227.0464
997.9399 250.6294
998.4221 265.8833
998.9042 251.8379
999.3863 213.4004
999.8684 167.9937
1000.351 101.9697
1000.833 69.88965
1001.315 113.5269
1001.797 166.5337
1002.279 199.0718
1002.761 211.1602
1003.243 199.0688
1003.725 166.8687
1004.207 142.6235
1004.690 140.8369
1005.172 146.6675
1005.654 163.9712
1006.136 174.6675
1006.618 152.2788
1007.100 109.6152
1007.582 81.70654
1008.064 78.61328
1008.547 66.81885
1009.029 16.26025
1009.511 84.24414
1009.993 9.147461
1010.475 124.8618
1010.957 171.1685
1011.439 128.0332
1011.921 87.92480
1012.403 97.90283
1012.886 119.7661
1013.368 111.9766
1013.850 87.22217
1014.332 59.22217
1014.814 35.25928
1015.296 46.84180
1015.778 93.95996
1016.260 115.0371
1016.742 55.67383
1017.225 26.56641
1017.707 21.14551
1018.189 46.86621
1018.671 91.82861
1019.153 107.5503
1019.635 95.74463
1020.117 56.99854
1020.599 28.11279
1021.082 54.23145
1021.564 111.4180
1022.046 114.7178
1022.528 68.43359
1023.010 33.46484
1023.492 18.87939
1023.974 17.29199
1024.456 32.67969
1024.938 48.37939
1025.421 33.57422
1025.903 51.74219
1026.385 75.09375
1026.867 69.33691
1027.349 117.9023
1027.831 136.6250
1028.313 119.2334
1028.795 48.78418
1029.278 36.04053
1029.760 41.66260
1030.242 45.46582
1030.724 98.05322
1031.206 111.8086
1031.688 102.2954
1032.170 64.52441
1032.652 25.17773
1033.135 8.432129
1033.617 8.708496
1034.099 3.790527
1034.581 12.87793
1035.063 14.12402
1035.545 2.993164
1036.027 31.37305
1036.509 115.9248
1036.991 193.6436
1037.474 202.4980
1037.956 149.8462
1038.438 111.9380
1038.920 93.01270
1039.402 75.65186
1039.884 51.25928
1040.366 39.18799
1040.848 57.89062
1041.330 86.81250
1041.813 96.14160
1042.295 84.55713
1042.777 81.91943
1043.259 101.5767
1043.741 110.4834
1044.223 87.29541
1044.705 71.89746
1045.187 101.0518
1045.670 146.4351
1046.152 157.8701
1046.634 129.6040
1047.116 97.34082
1047.598 34.52197
1048.080 8.247070
1048.562 69.62451
1049.044 138.4409
1049.526 150.5146
1050.009 128.3394
1050.491 131.4404
1050.973 175.0732
1051.455 202.9858
1051.937 196.2524
1052.419 185.1606
1052.901 179.6147
1053.383 174.6357
1053.865 158.7192
1054.348 139.5869
1054.830 146.5415
1055.312 204.0952
1055.794 228.4355
1056.276 161.9854
1056.758 94.21631
1057.240 55.32227
1057.722 44.16504
1058.205 69.63672
1058.687 121.3374
1059.169 160.8667
1059.651 182.6006
1060.133 181.9141
1060.615 123.6299
1061.097 79.71143
1061.579 113.5576
1062.062 172.8013
1062.544 186.6885
1063.026 155.5869
1063.508 136.0557
1063.990 159.6318
1064.472 170.8354
1064.954 123.2021
1065.436 82.29736
1065.918 101.1582
1066.401 151.5542
1066.883 196.4019
1067.365 224.3262
1067.847 233.6963
1068.329 205.1226
1068.811 170.6338
1069.293 131.8428
1069.775 105.0566
1070.257 106.9097
1070.740 127.9590
1071.222 159.1304
1071.704 196.1885
1072.186 215.2544
1072.668 194.1626
1073.150 168.9863
1073.632 155.6660
1074.114 146.2173
1074.597 136.1680
1075.079 122.2515
1075.561 101.3687
1076.043 74.48682
1076.525 60.21729
1077.007 68.16455
1077.489 89.69189
1077.971 144.2607
1078.453 189.6992
1078.936 184.8740
1079.418 142.0991
1079.900 77.21680
1080.382 5.512695
1080.864 37.96680
1081.346 61.83203
1081.828 155.9976
1082.310 163.5020
1082.792 138.5303
1083.275 120.0283
1083.757 114.7773
1084.239 131.3984
1084.721 173.1895
1085.203 196.0010
1085.685 162.7686
1086.167 127.5107
1086.649 123.6206
1087.131 125.1733
1087.614 110.6787
1088.096 87.45850
1088.578 66.31982
1089.060 49.95068
1089.542 43.17432
1090.024 56.88379
1090.506 69.63232
1090.988 79.86768
1091.471 76.17578
1091.953 33.63672
1092.435 29.34961
1092.917 67.18750
1093.399 67.63867
1093.881 50.54785
1094.363 4.426270
1094.845 41.48779
1095.328 14.47803
1095.810 26.29492
1096.292 37.90527
1096.774 23.38330
1097.256 3.047852
1097.738 41.43018
1098.220 68.93408
1098.702 73.97119
1099.184 72.18750
1099.667 64.18506
1100.149 57.51953
1100.631 57.81787
1101.113 64.91943
1101.595 77.01074
1102.077 93.66309
1102.559 116.1885
1103.041 170.7002
1103.523 197.7861
1104.006 143.0908
1104.488 81.06299
1104.970 82.45020
1105.452 124.4194
1105.934 143.6553
1106.416 128.7061
1106.898 111.3896
1107.380 92.81006
1107.863 78.48877
1108.345 75.51172
1108.827 72.37744
1109.309 48.30371
1109.791 20.07227
1110.273 34.97168
1110.755 113.7148
1111.237 151.9150
1111.719 114.9683
1112.202 71.71191
1112.684 3.220703
1113.166 32.98730
1113.648 34.54932
1114.130 154.9292
1114.612 210.0557
1115.094 182.6436
1115.576 162.6182
1116.058 155.0156
1116.541 147.3154
1117.023 140.1460
1117.505 128.8633
1117.987 102.8872
1118.469 74.85645
1118.951 70.37646
1119.433 91.64111
1119.915 123.2349
1120.398 188.5630
1120.880 212.8931
1121.362 156.0054
1121.844 107.0332
1122.326 127.2715
1122.808 175.0098
1123.290 181.2544
1123.772 143.4336
1124.255 116.8120
1124.737 100.0820
1125.219 103.4297
1125.701 142.7358
1126.183 160.2153
1126.665 114.8311
1127.147 47.76270
1127.629 20.68848
1128.111 32.48779
1128.594 65.61426
1129.076 126.2227
1129.558 169.9619
1130.040 192.8086
1130.522 184.8726
1131.004 134.1274
1131.486 80.99951
1131.968 84.80176
1132.450 130.4912
1132.933 127.3384
1133.415 75.84375
1133.897 50.57373
1134.379 59.93848
1134.861 89.48633
1135.343 134.8125
1135.825 172.6240
1136.307 174.4883
1136.790 153.3701
1137.272 145.7822
1137.754 149.3491
1138.236 150.0547
1138.718 145.6055
1139.200 142.5059
1139.682 138.8301
1140.164 140.2100
1140.646 156.0679
1141.129 169.2134
1141.611 130.6689
1142.093 153.3184
1142.575 81.88379
1143.057 146.3843
1143.539 171.3208
1144.021 138.4097
1144.503 121.1787
1144.985 180.8394
1145.468 246.5005
1145.950 227.0625
1146.432 164.2354
1146.914 99.04102
1147.396 49.31104
1147.878 51.16553
1148.360 102.2671
1148.842 165.3301
1149.325 233.3008
1149.807 255.7095
1150.289 128.7910
1150.771 3.131836
1151.253 24.89941
1151.735 122.6401
1152.217 159.5913
1152.699 129.6699
1153.182 91.73584
1153.664 57.16895
1154.146 52.75537
1154.628 124.0952
1155.110 193.2754
1155.592 227.9761
1156.074 226.2671
1156.556 154.5518
1157.038 53.05518
1157.521 27.92188
1158.003 112.8276
1158.485 163.6875
1158.967 116.1553
1159.449 77.42969
1159.931 73.66748
1160.413 93.52051
1160.895 156.2388
1161.377 225.2778
1161.860 223.7817
1162.342 141.7241
1162.824 95.20361
1163.306 106.2905
1163.788 113.6387
1164.270 115.1929
1164.752 104.9404
1165.234 71.15869
1165.717 34.81592
1166.199 21.08691
1166.681 29.61377
1167.163 60.53418
1167.645 122.5342
1168.127 172.8647
1168.609 214.9575
1169.091 210.5425
1169.573 135.5303
1170.056 49.54395
1170.538 8.744629
1171.020 2.683105
1171.502 18.08105
1171.984 50.69092
1172.466 62.66455
1172.948 54.34229
1173.430 47.78320
1173.912 50.84082
1174.395 57.02783
1174.877 61.84375
1175.359 65.98584
1175.841 74.39209
1176.323 81.47607
1176.805 70.27246
1177.287 45.20703
1177.769 17.45361
1178.252 8.898438
1178.734 31.50293
1179.216 49.75391
1179.698 43.49658
1180.180 37.28955
1180.662 123.4551
1181.144 127.4829
1181.626 89.47705
1182.109 50.43555
1182.591 23.25049
1183.073 28.41748
1183.555 68.57324
1184.037 96.12256
1184.519 66.50342
1185.001 44.32959
1185.483 82.04492
1185.965 120.1592
1186.448 101.7222
1186.930 59.58789
1187.412 44.04980
1187.894 58.72412
1188.376 80.86279
1188.858 113.0605
1189.340 140.3647
1189.822 180.6172
1190.304 194.8877
1190.787 142.4253
1191.269 80.02588
1191.751 57.88037
1192.233 63.95996
1192.715 57.44678
1193.197 29.03906
1193.679 34.13379
1194.161 93.08057
1194.644 121.0981
1195.126 89.51465
1195.608 57.59033
1196.090 60.99219
1196.572 90.68896
1197.054 139.5073
1197.536 199.9600
1198.018 206.3076
1198.500 160.9463
1198.983 115.9541
1199.465 78.83350
1199.947 64.71094
1200.429 79.63135
1200.911 93.96191
1201.393 71.81885
1201.875 44.47363
1202.357 88.72363
1202.839 162.3452
1203.322 162.6938
1203.804 109.3867
1204.286 75.02246
1204.768 74.36133
1205.250 76.37305
1205.732 59.76416
1206.214 59.03125
1206.696 126.2539
1207.179 195.6650
1207.661 212.8564
1208.143 194.2949
1208.625 141.6221
1209.107 78.44971
1209.589 65.63672
1210.071 126.1968
1210.553 161.9072
1211.036 121.9771
1211.518 85.29980
1212.000 77.51855
1212.482 78.58984
1212.964 79.51758
1213.446 78.59180
1213.928 70.49609
1214.410 56.20410
1214.892 60.22803
1215.375 97.98486
1215.857 111.4146
1216.339 91.93457
1216.821 62.45752
1217.303 24.89990
1217.785 1.082520
1218.267 3.171387
1218.749 29.48242
1219.231 65.07275
1219.714 106.6143
1220.196 112.2964
1220.678 86.49756
1221.160 82.90918
1221.642 109.2383
1222.124 128.4238
1222.606 120.6494
1223.088 104.8433
1223.571 100.2949
1224.053 102.8389
1224.535 108.9219
1225.017 115.4771
1225.499 115.1201
1225.981 111.0293
1226.463 116.0161
1226.945 130.6069
1227.427 134.0034
1227.910 110.6665
1228.392 82.24219
1228.874 56.13477
1229.356 33.09814
1229.838 0.8764650
1230.320 18.49316
1230.802 12.46094
1231.284 78.47852
1231.766 118.4624
1232.249 122.2559
1232.731 118.2383
1233.213 80.15576
1233.695 67.77539
1234.177 111.4976
1234.659 144.0591
1235.141 119.8896
1235.623 79.41895
1236.106 86.47656
1236.588 128.2798
1237.070 105.2393
1237.552 14.40332
1238.034 8.871094
1238.516 43.89355
1238.998 92.02637
1239.480 110.2490
1239.963 107.7026
1240.445 88.80518
1240.927 66.38721
1241.409 61.67871
1241.891 48.99121
1242.373 56.76221
1242.855 44.31689
1243.337 44.58398
1243.819 58.80566
1244.302 87.74268
1244.784 131.2036
1245.266 155.2354
1245.748 138.8179
1246.230 99.98242
1246.712 12.56738
1247.194 56.88037
1247.676 52.57812
1248.158 2.891113
1248.641 64.61670
1249.123 141.5483
1249.605 185.7852
1250.087 194.2681
1250.569 169.8999
1251.051 82.91992
1251.533 28.55371
1252.015 45.22705
1252.498 67.93652
1252.980 51.96777
1253.462 69.46924
1253.944 34.20605
1254.426 72.65283
1254.908 85.71240
1255.390 75.50732
1255.872 56.48438
1256.354 32.89941
1256.837 23.59375
1257.319 32.93652
1257.801 49.34033
1258.283 75.79248
1258.765 97.70508
1259.247 100.5879
1259.729 94.10791
1260.211 75.49072
1260.693 64.72510
1261.176 112.3291
1261.658 189.8452
1262.140 206.1035
1262.622 127.7173
1263.104 73.90527
1263.586 106.5801
1264.068 132.8267
1264.550 116.2427
1265.033 100.5879
1265.515 115.0483
1265.997 122.3057
1266.479 107.9956
1266.961 94.57129
1267.443 87.50098
1267.925 87.49561
1268.407 90.27051
1268.890 97.47559
1269.372 97.70166
1269.854 88.79492
1270.336 85.91699
1270.818 97.20410
1271.300 107.7593
1271.782 90.68018
1272.264 64.64160
1272.746 66.05078
1273.229 87.57422
1273.711 128.8833
1274.193 173.3662
1274.675 185.1709
1275.157 159.0894
1275.639 113.0396
1276.121 41.97949
1276.603 6.759277
1277.085 0.3466800
1277.568 21.91357
1278.050 48.06055
1278.532 69.63770
1279.014 77.34814
1279.496 76.56934
1279.978 78.39111
1280.460 82.70996
1280.942 73.02783
1281.425 73.43506
1281.907 65.20508
1282.389 45.67188
1282.871 25.70508
1283.353 8.756836
1283.835 0.2089840
1284.317 0.0000000E+00
