#Shining_header
#Data type:raman_database
#CAS:Not entered
#Material scientific name:Armangite
#Manufacturer:Not entered
#Laser model:Not entered
#Spectrometer model:Not entered
#Testing unit:Not entered
#Test time:Not entered
#Other experimental details:Not entered
#Shining_data
91.53320 0.0000000E+00
92.01532 8.982727
92.49744 0.4263920
92.97955 10.56525
93.46167 27.03149
93.94379 33.44336
94.42590 33.88892
94.90802 31.72064
95.39014 28.07715
95.87225 22.45721
96.35437 17.45197
96.83649 15.08850
97.31860 14.22620
97.80072 13.50391
98.28284 10.85608
98.76495 6.271484
99.24707 4.361633
99.72919 8.076111
100.2113 11.56635
100.6934 12.49994
101.1755 11.83649
101.6577 11.72797
102.1398 14.05682
102.6219 19.03882
103.1040 25.02142
103.5861 32.92126
104.0682 40.66742
104.5504 46.76056
105.0325 51.17706
105.5146 55.31311
105.9967 60.98163
106.4788 68.64087
106.9609 76.58270
107.4431 85.09747
107.9252 93.73486
108.4073 101.5503
108.8894 107.8698
109.3715 114.1086
109.8536 122.9548
110.3358 134.8895
110.8179 146.7794
111.3000 156.8931
111.7821 165.3784
112.2642 173.6216
112.7463 181.7818
113.2285 190.1821
113.7106 199.3790
114.1927 209.7236
114.6748 220.0600
115.1569 228.5453
115.6390 234.5477
116.1212 240.3914
116.6033 247.8243
117.0854 255.9099
117.5675 263.0029
118.0496 267.5442
118.5317 269.4513
119.0139 270.6566
119.4960 271.4321
119.9781 271.6003
120.4602 271.6715
120.9423 271.3285
121.4244 270.1208
121.9066 267.7056
122.3887 264.0491
122.8708 259.2993
123.3529 252.9534
123.8350 246.2295
124.3171 239.7888
124.7993 233.6014
125.2814 227.1436
125.7635 219.6902
126.2456 210.8911
126.7277 203.0195
127.2098 196.8938
127.6920 191.3624
128.1741 185.1019
128.6562 177.8141
129.1383 170.1725
129.6204 163.0078
130.1025 156.2405
130.5847 149.4965
131.0668 142.9846
131.5489 136.4548
132.0310 128.9572
132.5131 119.5684
132.9952 109.7824
133.4774 100.7180
133.9595 92.41254
134.4416 84.78516
134.9237 78.00085
135.4058 72.17761
135.8879 66.18170
136.3701 59.14606
136.8522 52.34009
137.3343 46.72479
137.8164 42.46606
138.2985 38.83691
138.7806 34.51630
139.2628 29.09052
139.7449 23.66687
140.2270 18.20361
140.7091 12.84137
141.1912 7.550781
141.6733 2.350647
142.1555 2.566956
142.6376 6.409546
143.1197 8.705994
143.6018 10.36047
144.0839 11.52478
144.5660 12.09650
145.0482 11.86993
145.5303 10.68896
146.0124 8.633606
146.4945 6.277710
146.9766 3.501953
147.4587 0.6367800
147.9409 1.838623
148.4230 4.138550
148.9051 7.265381
149.3872 12.14514
149.8693 18.47949
150.3514 24.04596
150.8336 28.38586
151.3157 32.39203
151.7978 36.79492
152.2799 41.60065
152.7620 47.02179
153.2441 53.72076
153.7263 61.14630
154.2084 68.52734
154.6905 75.42517
155.1726 82.08508
155.6547 89.12970
156.1368 96.72284
156.6190 104.3757
157.1011 111.6589
157.5832 118.7934
158.0653 126.2840
158.5474 134.3044
159.0295 142.8740
159.5117 152.3057
159.9938 163.6152
160.4759 174.9066
160.9580 185.2819
161.4401 194.9978
161.9222 204.7829
162.4044 215.3159
162.8865 226.8052
163.3686 238.1272
163.8507 249.2178
164.3328 260.3599
164.8149 271.6566
165.2971 283.1316
165.7792 294.5221
166.2613 305.6400
166.7434 316.3442
167.2255 326.9042
167.7076 337.5108
168.1898 347.8210
168.6719 357.5504
169.1540 366.7700
169.6361 375.5977
170.1182 384.1650
170.6003 392.5358
171.0825 400.3716
171.5646 407.3478
172.0467 413.8835
172.5288 420.6237
173.0109 427.8290
173.4930 434.7867
173.9752 440.1351
174.4573 443.8679
174.9394 447.1643
175.4215 450.3013
175.9036 453.2513
176.3857 456.0316
176.8679 458.8474
177.3500 461.1451
177.8321 462.5563
178.3142 463.2188
178.7963 462.4293
179.2784 459.0168
179.7606 453.2983
180.2427 448.3136
180.7248 445.9691
181.2069 443.6272
181.6890 439.3543
182.1711 432.9799
182.6533 424.7426
183.1354 414.1841
183.6175 400.9203
184.0996 388.3914
184.5817 379.2899
185.0638 369.9562
185.5460 357.9891
186.0281 342.9120
186.5102 326.4312
186.9923 310.8533
187.4744 296.4718
187.9565 282.2577
188.4387 267.9637
188.9208 253.7772
189.4029 239.8522
189.8850 226.1704
190.3671 212.8999
190.8492 200.0283
191.3314 187.2933
191.8135 175.7419
192.2956 165.8439
192.7777 156.8372
193.2598 148.1329
193.7419 139.5196
194.2241 131.0369
194.7062 122.7974
195.1883 114.6626
195.6704 106.9388
196.1525 99.97827
196.6346 93.35077
197.1168 86.51031
197.5989 79.20898
198.0810 71.67847
198.5631 64.59296
199.0452 57.29761
199.5273 51.21606
200.0095 46.86926
200.4916 43.68768
200.9737 40.96655
201.4558 38.45105
201.9379 36.08600
202.4200 33.53540
202.9022 30.41711
203.3843 27.93170
203.8664 26.49084
204.3485 26.03790
204.8306 26.53802
205.3127 28.20087
205.7949 30.47485
206.2770 32.10822
206.7591 32.51520
207.2412 33.55066
207.7233 36.44629
208.2054 41.00751
208.6876 45.94617
209.1697 50.44568
209.6518 55.40497
210.1339 61.96869
210.6160 70.43109
211.0981 79.71124
211.5803 89.42438
212.0624 99.56128
212.5445 108.8936
213.0266 118.4022
213.5087 125.6859
213.9908 128.7165
214.4730 127.1584
214.9551 121.4345
215.4372 111.0779
215.9193 95.34412
216.4014 79.33801
216.8836 62.62659
217.3657 47.19415
217.8478 34.48669
218.3299 24.93298
218.8120 17.65009
219.2941 11.72662
219.7763 7.353088
220.2584 3.811218
220.7405 1.051331
221.2226 1.075500
221.7047 2.510315
222.1868 3.263123
222.6690 3.642883
223.1511 4.184204
223.6332 5.189636
224.1153 5.650391
224.5974 5.695374
225.0795 5.132019
225.5617 3.566895
226.0438 0.9642940
226.5259 2.070435
227.0080 4.433899
227.4901 5.512238
227.9722 7.048431
228.4544 9.260681
228.9365 11.81503
229.4186 14.54611
229.9007 17.32556
230.3828 19.99377
230.8649 22.31793
231.3471 23.90524
231.8292 26.14471
232.3113 28.72852
232.7934 31.82510
233.2755 35.89853
233.7576 41.02850
234.2398 46.56708
234.7219 51.31210
235.2040 54.45343
235.6861 58.20410
236.1682 62.89023
236.6503 67.93063
237.1325 72.96094
237.6146 77.88580
238.0967 82.63397
238.5788 86.99149
239.0609 90.72293
239.5430 94.36752
240.0252 97.83591
240.5073 101.2402
240.9894 104.6180
241.4715 107.9970
241.9536 111.5474
242.4357 115.6132
242.9179 120.4021
243.4000 124.7426
243.8821 128.3566
244.3642 131.5228
244.8463 134.6036
245.3284 137.6963
245.8106 140.4744
246.2927 142.4077
246.7748 143.4713
247.2569 144.6359
247.7390 146.3415
248.2211 148.0833
248.7033 149.2445
249.1854 149.7082
249.6675 149.7828
250.1496 149.7682
250.6317 149.6302
251.1138 149.0956
251.5960 147.5748
252.0781 145.8410
252.5602 145.1469
253.0423 145.8326
253.5244 146.3257
254.0065 144.9785
254.4887 142.3250
254.9708 139.7053
255.4529 137.8175
255.9350 136.0229
256.4171 133.2911
256.8992 129.3958
257.3813 125.4781
257.8635 122.4601
258.3456 119.9636
258.8277 117.3390
259.3098 114.2483
259.7919 111.0596
260.2740 108.3730
260.7562 106.2921
261.2383 104.2622
261.7204 102.3574
262.2025 100.1984
262.6846 97.07690
263.1667 92.33615
263.6489 87.09857
264.1310 82.96292
264.6131 80.13760
265.0952 77.50266
265.5773 74.37378
266.0594 71.28778
266.5416 68.84848
267.0237 67.34518
267.5058 66.19443
267.9879 64.61508
268.4700 62.56461
268.9521 60.32806
269.4343 57.70853
269.9164 55.08926
270.3985 52.80435
270.8806 50.94202
271.3627 49.31354
271.8448 47.68533
272.3270 46.01410
272.8091 44.49716
273.2912 43.52310
273.7733 42.49445
274.2554 41.04581
274.7375 39.09256
275.2197 36.78418
275.7018 34.04694
276.1839 30.74069
276.6660 28.00729
277.1481 26.40378
277.6302 25.17618
278.1124 24.14542
278.5945 23.22769
279.0766 22.24466
279.5587 21.04306
280.0408 19.63342
280.5229 18.11502
281.0051 16.38547
281.4872 14.60892
281.9693 12.88339
282.4514 11.23709
282.9335 9.661896
283.4156 8.175049
283.8978 6.814728
284.3799 5.594208
284.8620 4.541718
285.3441 3.531250
285.8262 2.330566
286.3083 1.128754
286.7905 0.3855900
287.2726 0.6359560
287.7547 1.688538
288.2368 1.645508
288.7189 0.9436040
289.2010 2.921204
289.6832 3.092377
290.1653 2.178192
290.6474 1.290710
291.1295 1.058777
291.6116 1.319153
292.0938 1.435028
292.5759 1.422302
293.0580 1.208771
293.5401 0.4370730
294.0222 0.3966670
294.5043 0.6634520
294.9865 6.5002002E-02
295.4686 1.006714
295.9507 1.598572
296.4328 1.519592
296.9149 1.280945
297.3970 0.8161010
297.8792 0.3060000
298.3613 0.1178590
298.8434 0.4642030
299.3255 0.7194210
299.8076 0.9295650
300.2897 1.040161
300.7719 1.695251
301.2540 3.043304
301.7361 4.601532
302.2182 6.217834
302.7003 7.843475
303.1824 9.351471
303.6646 10.42929
304.1467 10.79156
304.6288 11.46017
305.1109 12.58932
305.5930 13.80554
306.0751 14.90216
306.5573 15.95999
307.0394 17.24097
307.5215 18.97693
308.0036 21.18222
308.4857 23.37039
308.9678 25.95920
309.4500 28.13449
309.9321 29.16571
310.4142 29.55865
310.8963 30.42108
311.3784 32.63165
311.8605 35.99121
312.3427 38.62903
312.8248 39.65726
313.3069 40.97260
313.7890 43.24362
314.2711 45.90485
314.7532 48.08902
315.2354 49.32761
315.7175 50.15167
316.1996 52.20432
316.6817 57.13589
317.1638 60.63562
317.6459 61.10147
318.1281 60.70715
318.6102 61.53323
319.0923 64.19250
319.5744 67.56927
320.0565 69.74457
320.5386 69.98346
321.0208 70.71202
321.5029 72.41019
321.9850 74.24625
322.4671 75.72878
322.9492 76.80048
323.4313 77.69147
323.9135 78.63934
324.3956 79.65527
324.8777 80.59973
325.3598 81.63939
325.8419 82.46039
326.3240 82.82574
326.8062 82.84653
327.2883 82.84070
327.7704 83.07932
328.2525 83.53688
328.7346 83.73059
329.2167 83.38187
329.6989 83.06989
330.1810 83.03821
330.6631 83.11220
331.1452 83.04311
331.6273 82.70047
332.1094 82.12027
332.5916 81.40036
333.0737 80.48030
333.5558 79.51622
334.0379 78.63983
334.5200 77.68481
335.0021 76.45546
335.4843 74.89182
335.9664 73.19502
336.4485 71.70465
336.9306 70.48203
337.4127 69.26788
337.8948 68.45789
338.3770 67.32477
338.8591 65.18890
339.3412 62.11800
339.8233 58.95815
340.3055 56.58957
340.7876 55.11243
341.2697 53.51520
341.7518 51.66042
342.2339 49.81732
342.7160 48.20515
343.1982 46.68439
343.6803 44.87735
344.1624 42.36533
344.6445 39.38849
345.1266 37.31560
345.6087 37.18930
346.0909 36.26530
346.5730 32.77029
347.0551 28.22778
347.5372 24.77112
348.0193 23.38527
348.5014 23.05328
348.9836 21.76956
349.4657 19.11592
349.9478 16.81299
350.4299 15.80588
350.9120 15.03394
351.3941 13.73674
351.8763 11.77611
352.3584 9.576828
352.8405 7.359039
353.3226 5.060211
353.8047 3.532516
354.2868 3.763931
354.7690 3.988510
355.2511 2.802383
355.7332 0.5295100
356.2153 1.359528
356.6974 1.401871
357.1795 0.2230990
357.6617 0.4737090
358.1438 3.012741
358.6259 5.236847
359.1080 5.193863
359.5901 3.963425
360.0722 3.295532
360.5544 4.105118
361.0365 5.421722
361.5186 5.884583
362.0007 5.419632
362.4828 4.680695
362.9649 3.587341
363.4471 2.545425
363.9292 2.075500
364.4113 2.326675
364.8934 2.714752
365.3755 2.795822
365.8576 2.618668
366.3398 2.496353
366.8219 2.609512
367.3040 2.621048
367.7861 2.064774
368.2682 1.006012
368.7503 0.1094820
369.2325 9.1399997E-02
369.7146 5.6853998E-02
370.1967 0.6582340
370.6788 2.052155
371.1609 3.529785
371.6430 4.686874
372.1252 5.489197
372.6073 5.807220
373.0894 5.122696
373.5715 4.342712
374.0536 4.141037
374.5357 4.472946
375.0179 5.097107
375.5000 5.939056
375.9821 6.971268
376.4642 8.172531
376.9463 9.719711
377.4284 11.00941
377.9106 11.60771
378.3927 11.84526
378.8748 12.41631
379.3569 13.56151
379.8390 14.60124
380.3211 14.40239
380.8033 12.55786
381.2854 12.00154
381.7675 14.03056
382.2496 16.64075
382.7317 18.36002
383.2138 19.09503
383.6960 19.37241
384.1781 19.52911
384.6602 19.57402
385.1423 19.66362
385.6244 19.66238
386.1065 19.83878
386.5887 20.40591
387.0708 21.18515
387.5529 21.84380
388.0350 22.22878
388.5171 22.52016
388.9992 23.13202
389.4814 24.63652
389.9635 25.55818
390.4456 25.46135
390.9277 25.08255
391.4098 25.01212
391.8919 25.32855
392.3741 25.74301
392.8562 25.94276
393.3383 25.88153
393.8204 25.97827
394.3025 26.80620
394.7846 27.19498
395.2668 26.21330
395.7489 24.55441
396.2310 23.59608
396.7131 24.20802
397.1952 25.83694
397.6773 26.53117
398.1595 25.67168
398.6416 24.85646
399.1237 24.17126
399.6058 23.68280
400.0879 23.58136
400.5700 23.85704
401.0522 24.10069
401.5343 23.67752
402.0164 22.39758
402.4985 21.60550
402.9806 21.94429
403.4627 22.22313
403.9449 21.66179
404.4270 20.59439
404.9091 19.95827
405.3912 20.53172
405.8733 21.87967
406.3554 22.58328
406.8376 22.42223
407.3197 22.15245
407.8018 21.98666
408.2839 21.91728
408.7660 21.93971
409.2481 22.04951
409.7303 22.25394
410.2124 22.52562
410.6945 22.87459
411.1766 23.47888
411.6587 24.54228
412.1408 25.69930
412.6230 26.64940
413.1051 27.38692
413.5872 27.86920
414.0693 27.91780
414.5514 27.80971
415.0335 27.92111
415.5157 28.20149
415.9978 28.19920
416.4799 27.59383
416.9620 26.73749
417.4441 26.33286
417.9262 26.35626
418.4084 26.72105
418.8905 27.78490
419.3726 29.22841
419.8547 30.00594
420.3368 29.63055
420.8189 28.91672
421.3011 29.14775
421.7832 30.45207
422.2653 31.85588
422.7474 33.56126
423.2295 35.13232
423.7116 36.08484
424.1938 36.45221
424.6759 36.75104
425.1580 37.41080
425.6401 38.44118
426.1222 39.41293
426.6043 39.94502
427.0865 40.79427
427.5686 42.60219
428.0507 44.70258
428.5328 46.01186
429.0149 46.13780
429.4970 45.83798
429.9792 46.54132
430.4613 49.18044
430.9434 50.75742
431.4255 50.36066
431.9076 49.89957
432.3897 50.71437
432.8719 52.52425
433.3540 54.04977
433.8361 54.20450
434.3182 53.21674
434.8003 52.73933
435.2824 53.02092
435.7646 53.46765
436.2467 54.19736
436.7288 54.87083
437.2109 55.12135
437.6930 54.83261
438.1751 54.18367
438.6573 53.20758
439.1394 51.85132
439.6215 51.07269
440.1036 51.56018
440.5857 52.01270
441.0678 51.46863
441.5500 50.14380
442.0321 48.90356
442.5142 48.27063
442.9963 47.96065
443.4784 47.45233
443.9605 46.72507
444.4427 45.97516
444.9248 45.46796
445.4069 44.89731
445.8890 43.69482
446.3711 41.56918
446.8532 39.55458
447.3354 38.18111
447.8175 37.33945
448.2996 36.99289
448.7817 37.24132
449.2638 37.27487
449.7459 35.99844
450.2281 33.30756
450.7102 31.43542
451.1923 30.87111
451.6744 30.78310
452.1565 31.05589
452.6386 31.41583
453.1208 31.01118
453.6029 29.26993
454.0850 26.90298
454.5671 25.89482
455.0492 27.90221
455.5313 29.04718
456.0135 28.62820
456.4956 27.77469
456.9777 27.45819
457.4598 27.74918
457.9419 27.98787
458.4240 27.44577
458.9062 26.10324
459.3883 25.59042
459.8704 26.49327
460.3525 27.63507
460.8346 29.09547
461.3167 30.52789
461.7989 31.42938
462.2810 31.60281
462.7631 31.53374
463.2452 32.07227
463.7273 33.38454
464.2094 34.29451
464.6916 34.17940
465.1737 34.12695
465.6558 34.65262
466.1379 35.74237
466.6200 37.26996
467.1021 39.50999
467.5843 41.96085
468.0664 43.59723
468.5485 44.36107
469.0306 44.78688
469.5127 44.78279
469.9948 44.81992
470.4770 45.61353
470.9591 47.32358
471.4412 49.16623
471.9233 51.19200
472.4054 52.98148
472.8875 53.47044
473.3697 52.43402
473.8518 51.30333
474.3339 51.34984
474.8160 52.56705
475.2981 53.55695
475.7802 54.21654
476.2624 54.78929
476.7445 55.45186
477.2266 56.09615
477.7087 56.45631
478.1908 56.42284
478.6729 56.22554
479.1551 56.24246
479.6372 56.30975
480.1193 57.03304
480.6014 59.08321
481.0835 61.10068
481.5656 62.25203
482.0478 62.70424
482.5299 63.11066
483.0120 63.91501
483.4941 64.96548
483.9762 65.60333
484.4583 65.40845
484.9405 65.68170
485.4226 66.95804
485.9047 68.57611
486.3868 70.05859
486.8689 71.33470
487.3510 72.55998
487.8332 73.75311
488.3153 74.97122
488.7974 76.67056
489.2795 79.18875
489.7616 81.38449
490.2437 82.17795
490.7259 82.28200
491.2080 82.76863
491.6901 83.90125
492.1722 85.29227
492.6543 86.78044
493.1364 88.30414
493.6186 89.67783
494.1007 90.86017
494.5828 91.91890
495.0649 92.97713
495.5470 94.05200
496.0291 94.76511
496.5113 94.84741
496.9934 94.80699
497.4755 95.06560
497.9576 95.44235
498.4397 95.39966
498.9218 94.65843
499.4040 93.57031
499.8861 92.95731
500.3682 93.32268
500.8503 93.24710
501.3324 92.72209
501.8145 91.82349
502.2967 90.50833
502.7788 88.84534
503.2609 86.99741
503.7430 85.06940
504.2251 83.03986
504.7072 80.87103
505.1894 78.63120
505.6715 76.03537
506.1536 72.57913
506.6357 69.03226
507.1178 66.14648
507.5999 63.97424
508.0821 61.71384
508.5642 58.79509
509.0463 55.33929
509.5284 51.45224
510.0105 46.92928
510.4926 42.97887
510.9748 40.81157
511.4569 39.65396
511.9390 37.63264
512.4211 34.28238
512.9032 30.78819
513.3853 27.44958
513.8674 24.42905
514.3495 22.21329
514.8317 20.88834
515.3138 19.75806
515.7959 18.07413
516.2780 15.77122
516.7601 13.88858
517.2422 13.00348
517.7244 11.80411
518.2065 9.454208
518.6886 6.646286
519.1707 4.362274
519.6528 2.953888
520.1349 2.105667
520.6171 1.464630
521.0992 1.185760
521.5813 0.5022130
522.0634 1.094833
522.5455 2.563217
523.0276 3.661697
523.5098 4.384949
523.9919 4.671661
524.4740 4.402161
524.9561 3.877930
525.4382 3.472183
525.9203 3.185349
526.4025 3.224899
526.8846 3.895096
527.3667 4.550919
527.8488 4.586273
528.3309 4.076675
528.8130 3.397141
529.2952 2.204498
529.7773 1.279236
530.2594 1.755264
530.7415 3.207748
531.2236 3.795471
531.7057 2.638489
532.1879 0.5420230
532.6700 1.056076
533.1521 2.011459
533.6342 2.848877
534.1163 3.515900
534.5984 4.025497
535.0806 4.258896
535.5627 4.426758
536.0448 5.001602
536.5269 6.296844
537.0090 8.086868
537.4911 9.728256
537.9733 11.37715
538.4554 12.37506
538.9375 11.85254
539.4196 11.41144
539.9017 12.17720
540.3839 13.95543
540.8660 15.69415
541.3481 16.85104
541.8302 17.48430
542.3123 17.45639
542.7944 16.63890
543.2766 16.32507
543.7587 17.27190
544.2408 18.76311
544.7229 19.81717
545.2050 20.44821
545.6871 20.82326
546.1693 20.86186
546.6514 20.69550
547.1335 20.57060
547.6156 20.46867
548.0977 20.03360
548.5798 18.94142
549.0620 17.53116
549.5441 16.94357
550.0262 17.93987
550.5083 18.78406
550.9904 19.58202
551.4725 20.13879
551.9547 20.18478
552.4368 19.81879
552.9189 19.44539
553.4010 19.39545
553.8831 19.53864
554.3652 19.36514
554.8474 18.86641
555.3295 18.07617
555.8116 16.48196
556.2937 14.96097
556.7758 14.30283
557.2579 14.49179
557.7401 14.65044
558.2222 14.17992
558.7043 13.38535
559.1864 12.75641
559.6685 12.30951
560.1506 12.00104
560.6328 11.86565
561.1149 11.80438
561.5970 11.54349
562.0791 10.92332
562.5612 10.63014
563.0433 11.14677
563.5255 11.77048
564.0076 11.88432
564.4897 11.52579
564.9718 11.08974
565.4539 10.82082
565.9360 10.68234
566.4182 10.54941
566.9003 10.39877
567.3824 10.30452
567.8645 10.18983
568.3466 10.19612
568.8287 10.58885
569.3109 11.21902
569.7930 11.54434
570.2751 11.07578
570.7572 10.25627
571.2393 10.09239
571.7214 10.64294
572.2036 11.12753
572.6857 11.34265
573.1678 11.33066
573.6499 11.07484
574.1320 10.58195
574.6141 10.20131
575.0963 10.09438
575.5784 10.08357
576.0605 9.981659
576.5426 9.835541
577.0247 9.858521
577.5068 10.16388
577.9890 10.58055
578.4711 10.81001
578.9532 10.92195
579.4353 10.63414
579.9174 9.200821
580.3995 8.101700
580.8817 8.478546
581.3638 9.666977
581.8459 10.35472
582.3280 9.925446
582.8101 8.861053
583.2922 7.864822
583.7744 6.938660
584.2565 5.948792
584.7386 4.700592
585.2207 3.575012
585.7029 2.825821
586.1850 2.439331
586.6671 2.400604
587.1492 3.148895
587.6313 3.670181
588.1135 2.833130
588.5956 1.166672
589.0777 8.9813001E-02
589.5598 3.6026001E-02
590.0419 0.3948520
590.5240 0.4331510
591.0062 0.1056370
591.4883 0.1344450
591.9704 1.100174
592.4525 1.677597
592.9346 1.344727
593.4167 0.5500950
593.8989 0.3247530
594.3810 1.120239
594.8631 1.641525
595.3452 1.572952
595.8273 0.9830470
596.3094 0.7185970
596.7916 0.9613800
597.2737 1.058304
597.7558 0.5932010
598.2379 9.9730998E-02
598.7200 0.6895900
599.2021 1.134888
599.6843 1.597229
600.1664 2.029160
600.6485 2.581558
601.1306 3.650238
601.6127 5.180359
602.0948 6.401138
602.5770 6.760284
603.0591 6.679291
603.5412 7.329712
604.0233 9.342712
604.5054 11.06076
604.9875 12.48653
605.4697 13.60205
605.9518 14.17421
606.4339 14.42767
606.9160 14.80380
607.3981 15.52971
607.8802 16.66470
608.3624 18.44879
608.8445 20.99713
609.3266 23.26878
609.8087 25.18166
610.2908 26.66016
610.7729 27.38963
611.2551 27.65515
611.7372 28.32123
612.2193 29.70753
612.7014 31.42621
613.1835 33.50691
613.6656 35.66814
614.1478 37.13223
614.6299 37.71088
615.1120 38.25319
615.5941 39.62781
616.0762 41.83704
616.5583 43.94556
617.0405 45.98529
617.5226 47.90088
618.0047 49.66016
618.4868 51.35590
618.9689 53.10242
619.4510 54.89241
619.9332 56.55106
620.4153 57.91263
620.8974 59.00914
621.3795 59.92305
621.8616 60.62813
622.3438 61.37515
622.8259 62.23781
623.3080 63.19676
623.7901 64.17847
624.2722 65.17488
624.7543 66.38130
625.2365 68.34564
625.7186 70.12347
626.2007 70.76736
626.6828 70.52710
627.1649 70.14597
627.6470 69.95660
628.1292 69.93045
628.6113 69.95038
629.0934 69.92062
629.5755 70.14487
630.0576 71.46359
630.5397 72.19022
631.0219 71.21558
631.5040 69.48642
631.9861 68.44247
632.4682 68.54584
632.9503 68.86108
633.4324 68.65750
633.9146 67.96500
634.3967 66.74060
634.8788 64.92535
635.3609 63.18048
635.8430 61.95093
636.3251 61.02936
636.8073 59.81378
637.2894 58.16016
637.7715 56.56308
638.2536 55.15100
638.7357 53.82257
639.2178 52.44241
639.7000 51.05869
640.1821 49.94550
640.6642 49.29007
641.1463 48.60635
641.6284 46.59366
642.1105 42.76328
642.5927 40.28418
643.0748 40.44699
643.5569 40.73099
644.0390 39.73077
644.5211 37.86053
645.0032 35.88998
645.4854 33.81708
645.9675 32.02002
646.4496 31.02316
646.9317 30.38977
647.4138 29.33640
647.8959 27.77405
648.3781 26.00797
648.8602 24.23108
649.3423 22.47696
649.8244 20.87744
650.3065 19.67288
650.7886 18.14493
651.2708 15.81918
651.7529 13.50421
652.2350 11.90637
652.7171 10.82581
653.1992 9.481323
653.6813 7.302979
654.1635 5.096008
654.6456 4.442993
655.1277 5.175354
655.6098 4.900848
656.0919 2.767853
656.5740 0.7375790
657.0562 0.7557980
657.5383 2.483215
658.0204 3.217682
658.5025 2.153107
658.9846 1.117920
659.4667 0.6310120
659.9489 0.4122920
660.4310 0.1636660
660.9131 0.1486210
661.3952 0.3774410
661.8773 0.4025570
662.3594 0.2312320
662.8416 0.1748350
663.3237 0.8758850
663.8058 1.571686
664.2879 2.226532
664.7700 2.846863
665.2521 3.471436
665.7343 4.074341
666.2164 4.557404
666.6985 4.794586
667.1806 5.045990
667.6627 5.794952
668.1448 6.613556
668.6270 6.574188
669.1091 5.529236
669.5912 4.119476
670.0733 2.797424
670.5554 1.648529
671.0375 1.339569
671.5197 2.683777
672.0018 3.527588
672.4839 3.368591
672.9660 2.910522
673.4481 2.648590
673.9302 2.519287
674.4124 2.157684
674.8945 1.311127
675.3766 0.2522890
675.8587 0.6646420
676.3408 1.489075
676.8229 2.525696
677.3051 3.895294
677.7872 5.108826
678.2693 5.651184
678.7514 5.603363
679.2335 5.911499
679.7156 6.819183
680.1978 7.709869
680.6799 8.511566
681.1620 9.248993
681.6441 9.978546
682.1262 10.67133
682.6083 11.24777
683.0905 11.69275
683.5726 11.91379
684.0547 11.56088
684.5368 10.64081
685.0189 10.19409
685.5010 10.66919
685.9832 11.08972
686.4653 10.51608
686.9474 9.152588
687.4295 8.149506
687.9116 8.205963
688.3937 7.700714
688.8759 5.877777
689.3580 3.456970
689.8401 0.9795230
690.3222 1.392609
690.8043 3.424194
691.2864 4.904327
691.7686 6.223755
692.2507 8.293182
692.7328 11.14548
693.2149 14.68945
693.6970 19.72546
694.1791 24.24982
694.6613 26.10193
695.1434 26.50009
695.6255 28.24750
696.1076 32.20578
696.5897 36.60577
697.0718 40.68814
697.5540 44.76501
698.0361 49.40997
698.5182 54.48346
699.0003 59.10477
699.4824 62.68814
699.9645 65.69214
700.4467 69.18466
700.9288 73.24493
701.4109 77.46103
701.8930 82.14929
702.3751 86.57236
702.8572 90.29105
703.3394 93.51620
703.8215 96.56921
704.3036 99.47235
704.7857 102.3119
705.2678 105.1078
705.7499 107.8546
706.2321 110.6777
706.7142 113.4765
707.1963 115.6663
707.6784 116.9146
708.1605 117.7319
708.6426 119.2916
709.1248 122.1755
709.6069 123.7041
710.0890 122.6692
710.5711 121.6786
711.0532 121.9629
711.5353 122.6466
712.0175 122.5563
712.4996 121.4730
712.9817 119.9770
713.4638 118.1604
713.9459 116.1913
714.4280 114.4268
714.9102 112.8807
715.3923 111.1811
715.8744 109.0809
716.3565 106.9344
716.8386 105.4384
717.3207 104.8434
717.8029 103.2587
718.2850 99.25500
718.7671 96.04269
719.2492 95.11642
719.7313 94.83798
720.2134 93.32858
720.6956 90.52274
721.1777 88.21756
721.6598 87.90729
722.1419 88.34952
722.6240 87.84702
723.1061 86.65857
723.5883 86.06128
724.0704 86.48526
724.5525 86.66138
725.0346 85.00977
725.5167 81.62335
725.9988 79.94034
726.4810 80.91824
726.9631 82.28122
727.4452 84.34625
727.9273 86.20847
728.4094 86.84140
728.8915 86.59442
729.3737 86.88861
729.8558 88.44446
730.3379 90.70068
730.8200 93.79459
731.3021 97.06451
731.7842 98.29559
732.2664 97.14084
732.7485 95.82062
733.2306 96.02890
733.7127 97.32440
734.1948 97.98807
734.6769 97.31464
735.1591 97.26288
735.6412 98.57928
736.1233 99.81726
736.6054 100.2490
737.0875 100.0728
737.5696 99.60831
738.0518 98.86322
738.5339 98.45441
739.0160 98.89893
739.4981 100.0037
739.9802 101.6041
740.4623 103.6071
740.9445 105.4472
741.4266 106.8297
741.9087 107.9867
742.3908 109.3126
742.8729 110.8494
743.3550 112.2488
743.8372 113.5079
744.3193 114.6664
744.8014 115.3887
745.2835 116.2363
745.7656 117.6992
746.2477 119.9020
746.7299 122.9317
747.2120 127.5575
747.6941 132.4750
748.1762 135.9448
748.6583 138.3699
749.1404 140.8016
749.6226 143.5589
750.1047 147.2765
750.5868 152.7983
751.0689 159.8854
751.5510 166.0244
752.0331 170.2140
752.5153 175.3476
752.9974 182.5641
753.4795 190.3074
753.9616 197.6309
754.4437 204.6716
754.9258 211.9008
755.4080 219.0360
755.8901 227.2979
756.3722 237.5716
756.8543 249.4287
757.3364 262.5605
757.8185 276.6553
758.3007 290.9059
758.7828 304.7111
759.2649 318.8015
759.7470 334.9931
760.2291 353.9829
760.7112 372.2079
761.1934 388.8130
761.6755 405.9922
762.1576 424.4953
762.6397 444.3391
763.1218 465.6196
763.6039 488.5056
764.0861 512.0953
764.5682 536.1284
765.0503 560.7268
765.5324 585.5451
766.0145 610.9667
766.4966 638.0372
766.9788 666.9789
767.4609 696.9528
767.9430 726.9786
768.4251 757.3555
768.9072 789.8391
769.3893 824.6078
769.8715 859.9131
770.3536 895.4346
770.8357 931.2497
771.3178 967.0018
771.7999 1002.862
772.2820 1040.049
772.7642 1080.489
773.2463 1119.821
773.7284 1156.369
774.2105 1191.747
774.6926 1226.872
775.1747 1262.039
775.6569 1297.627
776.1390 1334.129
776.6211 1369.008
777.1032 1398.564
777.5853 1423.424
778.0674 1447.236
778.5496 1470.136
779.0317 1493.078
779.5138 1517.323
779.9959 1540.885
780.4780 1560.122
780.9601 1574.091
781.4423 1587.387
781.9244 1600.599
782.4065 1612.442
782.8886 1622.711
783.3707 1631.258
783.8528 1638.813
784.3350 1644.910
784.8171 1646.940
785.2992 1643.053
785.7813 1634.557
786.2634 1623.306
786.7455 1608.890
787.2277 1590.035
787.7098 1566.562
788.1919 1538.646
788.6740 1506.594
789.1561 1470.523
789.6382 1430.924
790.1204 1387.557
790.6025 1341.802
791.0846 1293.490
791.5667 1243.080
792.0488 1189.932
792.5309 1135.034
793.0131 1079.157
793.4952 1022.140
793.9773 965.8579
794.4594 910.2788
794.9415 856.5964
795.4236 806.6622
795.9058 759.5315
796.3879 712.3531
796.8700 664.4087
797.3521 617.9975
797.8342 574.9948
798.3163 535.4425
798.7985 500.2164
799.2806 469.8762
799.7627 440.2780
800.2448 409.7204
800.7269 380.6181
801.2090 355.0415
801.6912 332.7145
802.1733 311.0508
802.6554 289.5246
803.1375 269.3980
803.6196 250.9656
804.1017 234.1020
804.5839 219.2421
805.0660 205.8533
805.5481 193.0820
806.0302 180.5097
806.5123 168.6531
806.9944 158.1641
807.4766 148.7939
807.9587 139.8490
808.4408 131.3648
808.9229 123.5582
809.4050 116.5596
809.8871 110.1984
810.3693 104.3468
810.8514 99.00363
811.3335 93.36047
811.8156 86.56686
812.2977 80.88409
812.7798 76.82114
813.2620 73.72220
813.7441 71.42795
814.2262 69.77475
814.7083 68.33862
815.1904 66.88681
815.6725 65.85696
816.1547 66.13409
816.6368 66.52737
817.1189 65.13832
817.6010 62.55928
818.0831 61.04027
818.5652 61.54289
819.0474 62.98521
819.5295 64.03271
820.0116 64.67905
820.4937 65.12541
820.9758 65.33336
821.4579 65.69601
821.9401 66.39774
822.4222 67.18584
822.9043 67.75238
823.3864 68.11366
823.8685 68.64682
824.3506 69.62616
824.8328 70.39597
825.3149 70.58679
825.7970 70.77490
826.2791 71.56067
826.7612 72.65839
827.2433 73.32336
827.7255 73.25465
828.2076 72.93903
828.6897 72.61722
829.1718 72.40129
829.6539 72.74048
830.1360 73.43347
830.6182 73.62686
831.1003 73.00467
831.5824 71.40216
832.0645 68.48436
832.5466 64.34508
833.0287 60.64153
833.5109 57.58160
833.9930 54.39610
834.4751 50.75928
834.9572 47.17207
835.4393 44.36041
835.9214 41.96703
836.4036 38.83873
836.8857 34.38589
837.3678 30.26596
837.8499 26.91870
838.3320 24.03154
838.8141 21.68416
839.2963 19.56448
839.7784 16.99493
840.2605 13.82445
840.7426 10.93535
841.2247 9.582550
841.7068 6.678558
842.1890 6.395706
842.6711 2.689484
843.1532 4.8492000E-02
843.6353 0.9156190
844.1174 1.388672
844.5995 2.355331
845.0817 3.738876
845.5638 5.190872
846.0459 6.932800
846.5280 8.112015
847.0101 8.301712
847.4922 8.379715
847.9744 8.969360
848.4565 9.658691
848.9386 9.789276
849.4207 9.249435
849.9028 8.629929
850.3849 7.903366
850.8671 7.326645
851.3492 7.160065
851.8313 7.179901
852.3134 7.011734
852.7955 6.655807
853.2776 6.549835
853.7598 7.095032
854.2419 7.802917
854.7240 7.965454
855.2061 7.663483
855.6882 7.026398
856.1703 6.086731
856.6525 5.549042
857.1346 5.884949
857.6167 6.558990
858.0988 6.500931
858.5809 5.576569
859.0630 4.812637
859.5452 4.352417
860.0273 3.796150
860.5094 2.714294
860.9915 1.725479
861.4736 1.479378
861.9557 1.863266
862.4379 2.169754
862.9200 2.518463
863.4021 2.425735
863.8842 1.392036
864.3663 0.1203610
864.8484 0.9139400
865.3306 1.649109
865.8127 2.037636
866.2948 2.064545
866.7769 2.068001
867.2590 2.432709
867.7411 3.001732
868.2233 3.469696
868.7054 3.838531
869.1875 4.136162
869.6696 4.367012
870.1517 4.682312
870.6339 5.261925
871.1160 6.004143
871.5981 6.385277
872.0802 6.194618
872.5623 6.424675
873.0444 7.402992
873.5266 8.430984
874.0087 9.072617
874.4908 9.541313
874.9729 10.34392
875.4550 11.64861
875.9371 12.31505
876.4193 11.31139
876.9014 10.68591
877.3835 11.77479
877.8656 13.36239
878.3477 14.12707
878.8298 14.04518
879.3120 13.84492
879.7941 13.82172
880.2762 13.97749
880.7583 14.37286
881.2404 14.92654
881.7225 15.49789
882.2047 16.08360
882.6868 16.77721
883.1689 17.61959
883.6510 18.44144
884.1331 19.01241
884.6152 19.36618
885.0974 19.75149
885.5795 20.16696
886.0616 20.66248
886.5437 21.32296
887.0258 21.88400
887.5079 22.12769
887.9901 22.09753
888.4722 21.94241
888.9543 21.28741
889.4364 21.22700
889.9185 22.41026
890.4006 23.42831
890.8828 23.54591
891.3649 23.29815
891.8470 23.29369
892.3291 23.61363
892.8112 24.12686
893.2933 25.00188
893.7755 25.80271
894.2576 26.22426
894.7397 26.43898
895.2218 26.58187
895.7039 26.72541
896.1860 27.03850
896.6682 27.60985
897.1503 28.14197
897.6324 28.11902
898.1145 28.54514
898.5966 28.79144
899.0787 28.77556
899.5609 29.18771
900.0430 28.97707
900.5251 28.86453
901.0072 29.61927
901.4893 30.95844
901.9714 31.52813
902.4536 31.04762
902.9357 30.73637
903.4178 30.77934
903.8999 30.79927
904.3820 30.75004
904.8641 30.58535
905.3463 30.00446
905.8284 28.86816
906.3105 28.22223
906.7926 28.68045
907.2747 29.05493
907.7568 28.82986
908.2390 28.49953
908.7211 28.55956
909.2032 28.87209
909.6853 28.97295
910.1674 28.70816
910.6495 28.25565
911.1317 27.52310
911.6138 26.75003
912.0959 26.37474
912.5780 26.21623
913.0601 25.68690
913.5422 24.69756
914.0244 23.86530
914.5065 23.74203
914.9886 23.92216
915.4707 23.56616
915.9528 22.81497
916.4349 22.45509
916.9171 22.58558
917.3992 22.49628
917.8813 21.78116
918.3634 20.79590
918.8455 20.04299
919.3276 19.47478
919.8098 19.13811
920.2919 19.02622
920.7740 19.22220
921.2561 20.21022
921.7382 21.03853
922.2203 20.66230
922.7025 19.42693
923.1846 18.78213
923.6667 19.13506
924.1488 19.10304
924.6309 18.13525
925.1130 17.25465
925.5952 16.99136
926.0773 17.03786
926.5594 17.04295
927.0415 16.95102
927.5236 16.82171
928.0057 16.63576
928.4879 16.50795
928.9700 16.51703
929.4521 16.60313
929.9342 16.81242
930.4163 17.03299
930.8984 16.99090
931.3806 16.57545
931.8627 15.91417
932.3448 14.91005
932.8269 13.89414
933.3090 13.62599
933.7911 13.95553
934.2733 14.36983
934.7554 14.75426
935.2375 14.90648
935.7196 14.64509
936.2017 14.17628
936.6838 13.97207
937.1660 14.04957
937.6481 14.00837
938.1302 13.77986
938.6123 13.79651
939.0944 14.37791
939.5765 14.88209
940.0587 14.59052
940.5408 13.62784
941.0229 12.92028
941.5050 12.57043
941.9871 12.28454
942.4692 12.12611
942.9514 11.94582
943.4335 11.55825
943.9156 11.19380
944.3977 11.22797
944.8798 11.66319
945.3619 11.88126
945.8441 11.51766
946.3262 11.21885
946.8083 11.40516
947.2904 11.58144
947.7725 11.25577
948.2546 10.59480
948.7368 10.02311
949.2189 9.665222
949.7010 9.453285
950.1831 9.365265
950.6652 9.386383
951.1473 9.664871
951.6295 9.965446
952.1116 9.758057
952.5937 9.090431
953.0758 8.547874
953.5579 8.462105
954.0400 8.646423
954.5222 8.962791
955.0043 9.323936
955.4864 9.452469
955.9685 9.357765
956.4506 9.216621
956.9327 9.075157
957.4149 8.566254
957.8970 7.189987
958.3791 5.544182
958.8612 5.780846
959.3433 8.111267
959.8254 9.148987
960.3076 8.414230
960.7897 7.497879
961.2718 7.029518
961.7539 6.797302
962.2360 6.577583
962.7181 6.362404
963.2003 5.921158
963.6824 4.895966
964.1645 4.395226
964.6466 4.873611
965.1287 5.462349
965.6108 5.778488
966.0930 5.881714
966.5751 5.820671
967.0572 5.580757
967.5393 5.370224
968.0214 5.329102
968.5035 5.157730
968.9857 4.402016
969.4678 3.821442
969.9499 4.208565
970.4320 5.181526
970.9141 5.898926
971.3962 6.183022
971.8784 6.003624
972.3605 4.779037
972.8426 3.697296
973.3247 3.900955
973.8068 4.526970
974.2889 4.318108
974.7711 3.387695
975.2532 2.846176
975.7353 3.267693
976.2174 3.740150
976.6995 3.371933
977.1816 2.612030
977.6638 1.967422
978.1459 1.492516
978.6280 1.230843
979.1101 1.217484
979.5922 1.382782
980.0743 1.722191
980.5565 2.136200
981.0386 2.373055
981.5207 2.507980
982.0028 2.866455
982.4849 3.415535
982.9670 3.711868
983.4492 3.599678
983.9313 3.414337
984.4134 3.520203
984.8955 3.769646
985.3776 3.541122
985.8597 2.810265
986.3419 2.458359
986.8240 2.607841
987.3061 2.784241
987.7882 2.782829
988.2703 2.727623
988.7524 2.767006
989.2346 2.890915
989.7167 3.000496
990.1988 3.077065
990.6809 3.215614
991.1630 3.580284
991.6451 3.709976
992.1273 3.201538
992.6094 2.480080
993.0915 2.214302
993.5736 2.438454
994.0557 2.482918
994.5378 1.980576
995.0200 1.840431
995.5021 2.657150
995.9842 3.320290
996.4663 3.015877
996.9484 2.267860
997.4305 1.969833
997.9127 2.221046
998.3948 2.404678
998.8769 2.457230
999.3590 2.380829
999.8411 2.173622
1000.323 1.841225
1000.805 1.103424
1001.287 0.3565370
1001.770 0.4127500
1002.252 1.494820
1002.734 2.440353
1003.216 2.913528
1003.698 2.927780
1004.180 2.100449
1004.662 1.115837
1005.144 0.7060320
1005.627 0.7733840
1006.109 1.093773
1006.591 1.632568
1007.073 1.961777
1007.555 1.326385
1008.037 0.5028310
1008.519 0.6940610
1009.001 1.320740
1009.483 1.319832
1009.966 0.7601090
1010.448 0.2603000
1010.930 2.0218000E-02
1011.412 0.1321180
1011.894 1.293816
1012.376 2.648514
1012.858 2.551674
1013.340 1.542542
1013.823 1.089302
1014.305 1.367531
1014.787 1.658501
1015.269 1.551376
1015.751 1.226646
1016.233 0.7387920
1016.715 0.2922360
1017.197 0.6773760
1017.679 1.645622
1018.162 1.976601
1018.644 1.464951
1019.126 1.130165
1019.608 1.689896
1020.090 1.220894
1020.572 2.230934
1021.054 1.118370
1021.536 0.6182400
1022.018 0.7232590
1022.501 0.8355410
1022.983 0.8089680
1023.465 0.7743000
1023.947 0.8325270
1024.429 0.9223180
1024.911 0.9145360
1025.393 0.8075710
1025.875 0.6319050
1026.358 0.3591160
1026.840 0.2894440
1027.322 0.5620270
1027.804 0.7642060
1028.286 0.5253370
1028.768 8.0833003E-02
1029.250 5.7158999E-02
1029.732 0.5323870
1030.214 0.8081670
1030.697 0.8279040
1031.179 0.8571930
1031.661 1.007187
1032.143 1.086594
1032.625 0.9415890
1033.107 0.6120760
1033.589 0.1608200
1034.071 0.5585480
1034.553 0.6648330
1035.036 0.4183580
1035.518 0.7841190
1036.000 0.6993560
1036.482 2.074242
1036.964 1.558578
1037.446 0.1560970
1037.928 1.020737
1038.410 0.8108520
1038.893 0.5478060
1039.375 0.2244570
1039.857 0.1469120
1040.339 0.8318020
1040.821 1.283394
1041.303 0.9252700
1041.785 3.6919001E-02
1042.267 0.6018980
1042.750 0.9696270
1043.232 1.162361
1043.714 1.066048
1044.196 0.9441600
1044.678 0.7908780
1045.160 0.6947780
1045.642 0.6988070
1046.124 0.8118290
1046.606 1.092751
1047.089 1.625603
1047.571 1.973633
1048.053 1.958099
1048.535 1.929214
1049.017 2.147484
1049.499 2.232635
1049.981 1.752419
1050.463 0.9557110
1050.945 0.3710330
1051.428 4.5761000E-02
1051.910 2.7061000E-02
1052.392 0.7574460
1052.874 1.214890
1053.356 0.8375320
1053.838 0.2922900
1054.320 1.9615000E-02
1054.802 1.7090000E-03
1055.285 3.4393001E-02
1055.767 6.5848999E-02
1056.249 0.6391980
1056.731 3.167671
1057.213 4.573387
1057.695 2.635429
1058.177 0.1919710
1058.659 0.7254330
1059.141 0.4629750
1059.624 0.2254870
1060.106 1.211555
1060.588 1.793350
1061.070 1.652809
1061.552 1.192909
1062.034 4.7531001E-02
1062.516 0.8556820
1062.998 0.2576750
1063.480 0.8689960
1063.963 0.4608310
1064.445 1.675293
1064.927 2.797272
1065.409 0.7931140
1065.891 0.9064030
1066.373 0.7884830
1066.855 3.9267998E-02
1067.337 1.352432
1067.820 2.483337
1068.302 2.276672
1068.784 0.7493520
1069.266 0.4394840
1069.748 0.5138240
1070.230 0.4071430
1070.712 0.5431820
1071.194 0.6382140
1071.677 0.4171750
1072.159 5.1651001E-02
1072.641 0.2345050
1073.123 0.4043430
1073.605 0.4898760
1074.087 0.5496670
1074.569 0.4188460
1075.051 0.1823200
1075.533 0.7970430
1076.016 1.138527
1076.498 1.263458
1076.980 1.119728
1077.462 0.8437880
1077.944 0.9342500
1078.426 1.697510
1078.908 2.340240
1079.390 2.424324
1079.873 2.346481
1080.355 2.188080
1080.837 2.137741
1081.319 2.498222
1081.801 3.145660
1082.283 3.610764
1082.765 3.705063
1083.247 3.965485
1083.729 4.875191
1084.212 5.748657
1084.694 5.945366
1085.176 6.105179
1085.658 6.864197
1086.140 8.151558
1086.622 9.746178
1087.104 11.62800
1087.586 13.27093
1088.068 14.32594
1088.551 15.14282
1089.033 15.61665
1089.515 16.25777
1089.997 17.66614
1090.479 19.49699
1090.961 20.95173
1091.443 21.92905
1091.925 23.31145
1092.408 26.02043
1092.890 28.43907
1093.372 29.54877
1093.854 30.45399
1094.336 31.93791
1094.818 33.80731
1095.300 35.61292
1095.782 37.28583
1096.265 39.14155
1096.747 41.43458
1097.229 43.69216
1097.711 45.86974
1098.193 47.65303
1098.675 48.74490
1099.157 49.61269
1099.639 50.74928
1100.121 52.13284
1100.604 53.55148
1101.086 55.09612
1101.568 56.27076
1102.050 56.83489
1102.532 57.12038
1103.014 57.37787
1103.496 57.33063
1103.978 56.37160
1104.460 54.96423
1104.943 54.41714
1105.425 55.13470
1105.907 55.37301
1106.389 54.30489
1106.871 53.41728
1107.353 53.79623
1107.835 53.83744
1108.317 52.29612
1108.800 49.72528
1109.282 46.97955
1109.764 44.09550
1110.246 41.64729
1110.728 40.21707
1111.210 38.39165
1111.692 36.20494
1112.174 33.31566
1112.656 28.96123
1113.139 24.19145
1113.621 20.20264
1114.103 16.99431
1114.585 14.25724
1115.067 12.30315
1115.549 10.25844
1116.031 7.661247
1116.513 5.612488
1116.995 4.701393
1117.478 4.317703
1117.960 3.996086
1118.442 3.735771
1118.924 3.526398
1119.406 3.328598
1119.888 3.231514
1120.370 3.372566
1120.852 3.283791
1121.335 2.612610
1121.817 2.068512
1122.299 2.150055
1122.781 2.470505
1123.263 2.454788
1123.745 2.018333
1124.227 1.625130
1124.709 1.119667
1125.192 1.222801
1125.674 2.337730
1126.156 3.143372
1126.638 2.966118
1127.120 2.455742
1127.602 2.369316
1128.084 2.623146
1128.566 2.878098
1129.048 3.181831
1129.531 2.903999
1130.013 1.858429
1130.495 1.427567
1130.977 2.150215
1131.459 2.937897
1131.941 2.901863
1132.423 2.344109
1132.905 1.841255
1133.387 1.389229
1133.870 1.145462
1134.352 1.105728
1134.834 1.309265
1135.316 1.756897
1135.798 2.038124
1136.280 1.918465
1136.762 1.681747
1137.244 1.697243
1137.727 1.877739
1138.209 2.056061
1138.691 2.165443
1139.173 1.701096
1139.655 0.7904590
1140.137 0.4884870
1140.619 1.134468
1141.101 2.136436
1141.583 3.144348
1142.066 3.774101
1142.548 3.127922
1143.030 1.829979
1143.512 1.156158
1143.994 0.9464110
1144.476 0.4683150
1144.958 0.2866520
1145.440 0.5686950
1145.922 2.3750000E-02
1146.405 0.8029170
1146.887 1.175339
1147.369 1.346077
1147.851 1.585075
1148.333 1.753479
1148.815 1.569572
1149.297 1.138588
1149.779 0.7449950
1150.262 0.4812240
1150.744 0.3498460
1151.226 0.3980180
1151.708 0.5056230
1152.190 0.6764530
1152.672 0.7965240
1153.154 0.8246310
1153.636 0.7076490
1154.119 0.1427310
1154.601 0.6660000
1155.083 0.7308810
1155.565 0.5151520
1156.047 1.455009
1156.529 1.403984
1157.011 1.137657
1157.493 0.8560710
1157.975 0.6289290
1158.458 0.3892670
1158.940 0.2786790
1159.422 0.7201000
1159.904 1.819641
1160.386 2.368233
1160.868 1.718430
1161.350 1.344574
1161.832 1.765396
1162.314 2.017143
1162.797 1.444962
1163.279 0.7825620
1163.761 0.8884810
1164.243 1.551086
1164.725 1.989136
1165.207 2.295639
1165.689 2.126305
1166.171 1.229500
1166.654 0.6160430
1167.136 0.5582050
1167.618 0.7666170
1168.100 1.129562
1168.582 1.454124
1169.064 1.341484
1169.546 0.8830800
1170.028 1.053177
1170.510 1.878098
1170.993 2.069305
1171.475 1.488342
1171.957 1.150528
1172.439 1.443520
1172.921 1.977264
1173.403 2.438225
1173.885 2.750908
1174.367 2.797722
1174.849 2.552284
1175.332 1.705261
1175.814 0.5176010
1176.296 9.2133000E-02
1176.778 0.4911800
1177.260 0.7836530
1177.742 0.5238570
1178.224 0.3801730
1178.706 1.348267
1179.189 2.390045
1179.671 1.852806
1180.153 0.7437360
1180.635 0.4333270
1181.117 0.8390200
1181.599 1.747467
1182.081 2.891731
1182.563 3.301247
1183.046 2.265327
1183.528 1.295296
1184.010 1.358086
1184.492 1.700890
1184.974 2.044571
1185.456 2.215332
1185.938 1.924568
1186.420 1.367096
1186.902 0.9638980
1187.385 0.7783890
1187.867 0.9206390
1188.349 1.854698
1188.831 2.449921
1189.313 2.358482
1189.795 2.052605
1190.277 1.548569
1190.759 1.113976
1191.241 1.085938
1191.724 1.344543
1192.206 1.411415
1192.688 1.204948
1193.170 1.177704
1193.652 1.401215
1194.134 1.557396
1194.616 1.573868
1195.098 1.549294
1195.581 1.526241
1196.063 1.548580
1196.545 1.728573
1197.027 1.954037
1197.509 1.573380
1197.991 0.6567730
1198.473 0.4829980
1198.955 1.055592
1199.438 1.462242
1199.920 1.463631
1200.402 1.465565
1200.884 1.743923
1201.366 2.045383
1201.848 1.947651
1202.330 1.703472
1202.812 1.804035
1203.294 2.100674
1203.776 2.398525
1204.259 2.571968
1204.741 2.399937
1205.223 1.870167
1205.705 1.316975
1206.187 0.8903160
1206.669 0.6098590
1207.151 0.5768320
1207.633 0.6026150
1208.116 0.4802970
1208.598 0.3704800
1209.080 0.4538310
1209.562 0.7264400
1210.044 1.207878
1210.526 1.938477
1211.008 2.303658
1211.490 1.848812
1211.973 1.516640
1212.455 1.691269
1212.937 1.723946
1213.419 1.137283
1213.901 0.5414580
1214.383 0.7007290
1214.865 1.342773
1215.347 1.510513
1215.829 1.100609
1216.312 0.9778060
1216.794 1.248413
1217.276 1.180870
1217.758 0.5324400
1218.240 0.3429870
1218.722 1.208572
1219.204 2.115822
1219.686 1.900467
1220.168 0.9828950
1220.651 0.1683730
1221.133 0.4431760
1221.615 0.2851600
1222.097 0.4499970
1222.579 0.9074550
1223.061 0.9615480
1223.543 0.9350200
1224.025 0.9829250
1224.508 1.203239
1224.990 1.960907
1225.472 2.594193
1225.954 2.055405
1226.436 1.346123
1226.918 2.024193
1227.400 3.149910
1227.882 2.827339
1228.365 1.185081
1228.847 0.1040650
1229.329 0.1756900
1229.811 0.3720860
1230.293 0.5267870
1230.775 0.5929260
1231.257 0.3155820
1231.739 0.1965940
1232.221 0.7494890
1232.703 1.452042
1233.186 1.538429
1233.668 1.112091
1234.150 0.9050370
1234.632 0.9454190
1235.114 1.107162
1235.596 1.494720
1236.078 1.424156
1236.560 0.6564870
1237.043 3.2065999E-02
1237.525 0.1882020
1238.007 1.6708000E-02
1238.489 0.2580410
1238.971 0.5997160
1239.453 0.9282610
1239.935 1.233955
1240.417 1.538612
1240.900 1.780762
1241.382 1.711945
1241.864 1.337456
1242.346 0.8887250
1242.828 0.4925920
1243.310 0.3731770
1243.792 0.8335040
1244.274 1.499596
1244.756 2.469826
1245.239 3.126984
1245.721 2.469566
1246.203 1.330757
1246.685 1.148994
1247.167 1.834068
1247.649 2.028648
1248.131 1.313446
1248.613 0.8042980
1249.095 0.7849120
1249.578 0.7329410
1250.060 0.3854980
1250.542 0.2771610
1251.024 0.8328700
1251.506 1.499695
1251.988 1.593735
1252.470 1.269058
1252.952 1.119926
1253.435 1.122360
1253.917 1.089165
1254.399 1.258797
1254.881 1.083298
1255.363 0.5243380
1255.845 0.2485810
1256.327 0.5523830
1256.809 0.8690570
1257.292 0.6218720
1257.774 0.1553270
1258.256 4.5028999E-02
1258.738 9.1779996E-03
1259.220 0.5120010
1259.702 1.138321
1260.184 1.014297
1260.666 0.3456570
1261.148 8.1580997E-02
1261.630 0.4306340
1262.113 0.6611480
1262.595 0.6028060
1263.077 0.5293200
1263.559 9.8534003E-02
1264.041 0.1758880
1264.523 2.044563
1265.005 3.748955
1265.487 3.225014
1265.970 1.538605
1266.452 1.280602
1266.934 2.489571
1267.416 2.672302
1267.898 1.637810
1268.380 1.019493
1268.862 1.043022
1269.344 1.248184
1269.827 1.485039
1270.309 1.564415
1270.791 1.290627
1271.273 1.018028
1271.755 1.573486
1272.237 0.9613720
1272.719 1.646408
1273.201 0.5899200
1273.683 0.1959840
1274.166 0.4403080
1274.648 0.7909700
1275.130 1.036987
1275.612 1.224457
1276.094 1.278519
1276.576 1.111153
1277.058 0.3516770
1277.540 0.1699750
1278.022 6.6482998E-02
1278.505 0.4234620
1278.987 0.3601680
1279.469 0.3140410
1279.951 0.9203110
1280.433 0.7420880
1280.915 0.7122960
1281.397 0.9596480
1281.879 0.1732940
1282.362 0.1340870
1282.844 0.1407550
1283.326 0.1249920
1283.808 9.1918997E-02
1284.290 4.1793998E-02
1284.772 5.0338998E-02
1285.254 4.8073001E-02
1285.736 0.0000000E+00
