#Shining_header
#Data type:raman_database
#CAS:Not entered
#Material scientific name:Bahianite
#Manufacturer:Not entered
#Laser model:Not entered
#Spectrometer model:Not entered
#Testing unit:Not entered
#Test time:Not entered
#Other experimental details:Not entered
#Shining_data
134.4781 0.0000000E+00
134.9602 0.1608200
135.4423 5.4775000E-02
135.9244 0.1292380
136.4065 0.4381450
136.8886 0.7133790
137.3708 0.9411430
137.8529 1.090191
138.3350 1.027416
138.8171 0.9758950
139.2992 0.9027630
139.7813 0.8794940
140.2635 1.016525
140.7456 1.382683
141.2277 1.979221
141.7098 2.789185
142.1919 3.858356
142.6740 5.040081
143.1561 6.298618
143.6383 7.611904
144.1204 8.945663
144.6025 10.27921
145.0846 11.61402
145.5667 13.01310
146.0488 14.61564
146.5310 16.16146
147.0131 17.39507
147.4952 18.27878
147.9773 18.83614
148.4594 18.92274
148.9415 18.62528
149.4237 18.37757
149.9058 18.30589
150.3879 18.40221
150.8700 18.66561
151.3521 19.18606
151.8342 19.76621
152.3164 20.19120
152.7985 20.48684
153.2806 21.01547
153.7627 22.12356
154.2448 23.65468
154.7269 25.52983
155.2091 27.89642
155.6912 30.16083
156.1733 31.62307
156.6554 32.45705
157.1375 33.22132
157.6196 33.99222
158.1018 34.62382
158.5839 35.72611
159.0660 37.24508
159.5481 39.22190
160.0302 41.81181
160.5123 45.00787
160.9945 48.55156
161.4766 51.94886
161.9587 54.96025
162.4408 58.25080
162.9229 62.66478
163.4050 66.94029
163.8871 70.17799
164.3693 72.03639
164.8514 72.28329
165.3335 70.19609
165.8156 64.83147
166.2977 58.46887
166.7798 50.42831
167.2620 41.65100
167.7441 33.51775
168.2262 26.59288
168.7083 20.75251
169.1904 15.78835
169.6725 11.68396
170.1547 8.176579
170.6368 5.184952
171.1189 2.722321
171.6010 0.8766750
172.0831 0.1748700
172.5652 0.6246640
173.0474 1.016041
173.5295 1.327927
174.0116 1.621616
174.4937 1.983505
174.9758 2.413849
175.4579 2.734016
175.9401 2.952152
176.4222 2.954281
176.9043 2.562004
177.3864 1.648865
177.8685 0.5525890
178.3506 0.2726860
178.8328 0.7262460
179.3149 1.277817
179.7970 2.143780
180.2791 3.151638
180.7612 4.185211
181.2433 5.223103
181.7255 6.213139
182.2076 7.045200
182.6897 7.676872
183.1718 8.201534
183.6539 8.571045
184.1360 8.891174
184.6181 9.295944
185.1003 9.861374
185.5824 10.50395
186.0645 10.90424
186.5466 10.71305
187.0287 10.70198
187.5108 10.89976
187.9930 11.34460
188.4751 12.16556
188.9572 13.45756
189.4393 15.07499
189.9214 16.17478
190.4035 15.96765
190.8857 16.11710
191.3678 16.92916
191.8499 18.30525
192.3320 20.13290
192.8141 22.35954
193.2962 24.91335
193.7784 27.21672
194.2605 28.81287
194.7426 30.68906
195.2247 33.28554
195.7068 36.45825
196.1889 39.83336
196.6711 43.26942
197.1532 46.68433
197.6353 49.74669
198.1174 53.12174
198.5995 55.61998
199.0816 56.32812
199.5638 55.42186
200.0459 54.14635
200.5280 53.50786
201.0101 52.82785
201.4922 50.52536
201.9743 46.08270
202.4565 40.45471
202.9386 33.90487
203.4207 26.37506
203.9028 19.47731
204.3849 14.07116
204.8670 9.938889
205.3492 6.889713
205.8313 5.085167
206.3134 4.109821
206.7955 3.545620
207.2776 3.418606
207.7597 3.588512
208.2419 4.289192
208.7240 5.146378
209.2061 5.758968
209.6882 5.925793
210.1703 5.945587
210.6524 6.323219
211.1346 7.109718
211.6167 8.134472
212.0988 9.429016
212.5809 10.86108
213.0630 12.31118
213.5451 13.71629
214.0273 15.14787
214.5094 16.78836
214.9915 18.83219
215.4736 20.73287
215.9557 22.32530
216.4378 23.77778
216.9200 25.29107
217.4021 26.94936
217.8842 28.66129
218.3663 30.15727
218.8484 31.42802
219.3305 32.44636
219.8127 33.62165
220.2948 34.41948
220.7769 34.25890
221.2590 32.87531
221.7411 30.48320
222.2232 27.69899
222.7054 23.87975
223.1875 20.43025
223.6696 17.50776
224.1517 14.96064
224.6338 12.61906
225.1159 10.39694
225.5980 8.348576
226.0802 6.639889
226.5623 5.408871
227.0444 4.379959
227.5265 3.537327
228.0086 2.887688
228.4907 2.504452
228.9729 2.429398
229.4550 2.528008
229.9371 2.407368
230.4192 1.900387
230.9013 1.498314
231.3834 1.181099
231.8656 1.042286
232.3477 1.266151
232.8298 1.951027
233.3119 2.906353
233.7940 3.690372
234.2761 4.115250
234.7583 4.901379
235.2404 6.196598
235.7225 8.016560
236.2046 10.34074
236.6867 13.13265
237.1688 16.41581
237.6510 20.46484
238.1331 25.35206
238.6152 30.16216
239.0973 34.97167
239.5794 39.47389
240.0615 42.90897
240.5437 44.94926
241.0258 46.13198
241.5079 47.05606
241.9900 47.73246
242.4721 48.39372
242.9542 49.01180
243.4364 49.68262
243.9185 50.66669
244.4006 52.05740
244.8827 53.70841
245.3648 55.41626
245.8469 57.18896
246.3290 59.20298
246.8112 61.60308
247.2933 64.30643
247.7754 67.11595
248.2575 69.97569
248.7396 72.99857
249.2217 76.22129
249.7039 79.63689
250.1860 83.23701
250.6681 86.64533
251.1502 90.15904
251.6323 94.92426
252.1144 100.9447
252.5966 108.4166
253.0787 116.9870
253.5608 126.7898
254.0429 138.3865
254.5250 152.9216
255.0071 169.4814
255.4893 185.1526
255.9714 201.7441
256.4535 213.9262
256.9356 221.6300
257.4177 223.9919
257.8998 219.2681
258.3820 205.4847
258.8641 184.3861
259.3462 161.4982
259.8283 134.3650
260.3104 109.6760
260.7925 88.47768
261.2747 70.64491
261.7568 56.25571
262.2389 45.48305
262.7210 37.71958
263.2031 31.15775
263.6852 26.07079
264.1674 21.87236
264.6495 18.56553
265.1316 15.84911
265.6137 13.45306
266.0958 11.26551
266.5779 9.306007
267.0601 7.628433
267.5422 6.244358
268.0243 5.182495
268.5064 4.532505
268.9885 4.096432
269.4706 3.709538
269.9528 3.327942
270.4349 3.021557
270.9170 2.894207
271.3991 2.984085
271.8812 3.204391
272.3633 3.425285
272.8455 3.828400
273.3276 4.586330
273.8097 5.722130
274.2918 7.077511
274.7739 8.417183
275.2560 9.685574
275.7382 11.03104
276.2202 12.67279
276.7024 14.20679
277.1845 15.38610
277.6666 16.17876
278.1487 16.69489
278.6308 17.02375
279.1129 17.08849
279.5951 17.40816
280.0772 18.04395
280.5593 18.83488
281.0414 19.76182
281.5235 20.78275
282.0056 21.80093
282.4878 22.70495
282.9699 23.45898
283.4520 24.40917
283.9341 25.72163
284.4162 27.04338
284.8983 28.03091
285.3805 28.87876
285.8626 30.16679
286.3447 32.44086
286.8268 35.66340
287.3089 37.99154
287.7910 38.27098
288.2732 38.96216
288.7553 40.82275
289.2374 43.60343
289.7195 46.77896
290.2016 50.06002
290.6837 53.41540
291.1659 56.76863
291.6480 60.85357
292.1301 64.05708
292.6122 66.22838
293.0943 67.32457
293.5764 67.36419
294.0586 66.36190
294.5407 63.61510
295.0228 60.58227
295.5049 54.57302
295.9870 48.08050
296.4691 40.40703
296.9513 32.60826
297.4334 25.67630
297.9155 19.97886
298.3976 15.41344
298.8797 11.87004
299.3618 9.848457
299.8440 8.078300
300.3261 6.629311
300.8082 5.392944
301.2903 4.204594
301.7724 3.066883
302.2545 2.198685
302.7367 1.898487
303.2188 2.384678
303.7009 2.671665
304.1830 2.707367
304.6651 2.609444
305.1472 2.331417
305.6294 1.934811
306.1115 1.661850
306.5936 1.748291
307.0757 2.224632
307.5578 2.576851
308.0399 2.519650
308.5221 2.634731
309.0042 3.281216
309.4863 4.322971
309.9684 5.393227
310.4505 6.271633
310.9326 6.969460
311.4148 7.493801
311.8969 7.605701
312.3790 7.849537
312.8611 8.380512
313.3432 9.123180
313.8253 9.926117
314.3075 10.70851
314.7896 11.57597
315.2717 12.83032
315.7538 15.03729
316.2359 16.81770
316.7180 17.95212
317.2001 18.65683
317.6823 19.14302
318.1644 19.47733
318.6465 19.63231
319.1286 19.55665
319.6107 19.14771
320.0928 18.71949
320.5750 18.54322
321.0571 18.16282
321.5392 17.09879
322.0213 15.36895
322.5034 13.48812
322.9855 12.02066
323.4677 11.06895
323.9498 9.624336
324.4319 7.102245
324.9140 4.701569
325.3961 3.004345
325.8782 1.949440
326.3604 1.191219
326.8425 0.5077210
327.3246 9.7182997E-02
327.8067 0.5888790
328.2888 0.8785780
328.7709 1.173595
329.2531 1.542892
329.7352 1.947895
330.2173 2.343178
330.6994 2.711998
331.1815 3.019859
331.6636 3.172649
332.1458 3.126354
332.6279 2.961742
333.1100 2.606537
333.5921 2.171528
334.0742 1.785759
334.5563 1.480965
335.0385 1.149532
335.5206 0.6217190
336.0027 0.2529300
336.4848 0.9365270
336.9669 1.426289
337.4490 1.758404
337.9312 1.880890
338.4133 1.840721
338.8954 1.786488
339.3775 1.829906
339.8596 1.952633
340.3417 2.424099
340.8239 3.752392
341.3060 4.855717
341.7881 5.214947
342.2702 5.060753
342.7523 4.855816
343.2344 4.866962
343.7166 5.101940
344.1987 5.602753
344.6808 6.724148
345.1629 7.722691
345.6450 8.391670
346.1271 8.956108
346.6093 9.649048
347.0914 10.55443
347.5735 11.64218
348.0556 12.84219
348.5377 14.19291
349.0198 15.61189
349.5020 17.06966
349.9841 18.60568
350.4662 20.42954
350.9483 22.44139
351.4304 24.18064
351.9125 25.13026
352.3947 25.21997
352.8768 24.96967
353.3589 24.58661
353.8410 23.66798
354.3231 21.77036
354.8052 19.22326
355.2874 16.67534
355.7695 14.57803
356.2516 12.84525
356.7337 10.90185
357.2158 8.170456
357.6979 6.055767
358.1800 5.117157
358.6621 4.744312
359.1443 4.295780
359.6264 3.521675
360.1085 2.592274
360.5906 1.778675
361.0727 1.042919
361.5548 0.5363390
362.0370 0.3412780
362.5191 0.3101500
363.0012 0.4074750
363.4833 0.6039280
363.9654 0.8209920
364.4475 0.9698410
364.9297 1.043289
365.4118 1.168293
365.8939 1.351444
366.3760 1.585838
366.8581 1.754974
367.3402 1.973465
367.8224 2.492119
368.3045 3.534084
368.7866 4.907722
369.2687 6.048065
369.7508 6.875793
370.2329 7.631611
370.7151 8.372807
371.1972 9.102436
371.6793 9.812702
372.1614 10.48626
372.6435 11.21056
373.1256 12.20298
373.6078 13.51832
374.0899 14.47243
374.5720 14.65638
375.0541 14.63386
375.5362 14.81476
376.0183 15.20924
376.5005 15.64990
376.9826 16.02860
377.4647 16.36121
377.9468 16.69729
378.4289 17.00876
378.9110 17.39894
379.3932 17.96861
379.8753 18.66258
380.3574 19.37408
380.8395 19.98198
381.3216 20.65941
381.8037 21.62745
382.2859 22.89398
382.7680 24.26050
383.2501 25.68448
383.7322 27.15205
384.2143 28.64101
384.6964 30.14038
385.1786 31.64097
385.6607 33.21902
386.1428 34.78535
386.6249 36.04715
387.1070 36.85896
387.5891 37.50613
388.0713 38.50187
388.5534 39.81432
389.0355 40.64584
389.5176 40.26407
389.9997 39.71149
390.4818 40.05145
390.9640 41.33132
391.4461 42.95113
391.9282 44.49990
392.4103 46.05706
392.8924 48.01693
393.3745 50.59217
393.8567 53.34772
394.3388 56.15612
394.8209 58.95977
395.3030 61.63131
395.7851 64.14620
396.2672 66.52304
396.7494 68.79781
397.2315 70.80729
397.7136 73.10722
398.1957 75.95809
398.6778 78.96995
399.1599 81.77593
399.6420 84.37564
400.1241 87.06837
400.6063 90.12053
401.0884 93.55363
401.5705 97.03745
402.0526 100.4352
402.5347 104.0283
403.0168 108.1429
403.4990 112.4694
403.9811 116.3822
404.4632 119.5560
404.9453 122.4388
405.4274 126.1462
405.9095 131.3362
406.3917 136.2331
406.8738 140.6597
407.3559 144.8782
407.8380 149.2198
408.3201 153.6378
408.8022 157.7615
409.2844 161.3951
409.7665 164.5697
410.2486 166.4158
410.7307 166.8987
411.2128 165.8979
411.6949 163.5096
412.1771 159.6028
412.6592 153.8795
413.1413 146.0997
413.6234 136.7423
414.1055 126.6763
414.5876 115.6017
415.0698 104.5812
415.5519 93.34604
416.0340 82.64691
416.5161 72.98464
416.9982 64.38745
417.4803 56.87478
417.9625 50.63632
418.4446 45.55625
418.9267 40.65377
419.4088 35.72656
419.8909 31.29731
420.3730 27.83894
420.8552 25.10036
421.3373 22.67668
421.8194 20.59804
422.3015 18.59717
422.7836 16.25246
423.2657 13.57714
423.7479 11.14779
424.2300 9.146252
424.7121 7.585018
425.1942 6.452740
425.6763 5.816402
426.1584 5.253029
426.6406 4.591591
427.1227 3.883694
427.6048 3.193783
428.0869 2.521973
428.5690 1.956532
429.0511 1.627838
429.5333 1.533028
430.0154 1.283688
430.4975 0.6587450
430.9796 8.5423000E-02
431.4617 0.1199040
431.9438 7.6897003E-02
432.4260 0.1148340
432.9081 0.3950390
433.3902 0.8189890
433.8723 1.156334
434.3544 1.375893
434.8365 1.553154
435.3187 1.633072
435.8008 1.710239
436.2829 1.888004
436.7650 2.160942
437.2471 2.433338
437.7292 2.629879
438.2114 2.753597
438.6935 2.696228
439.1756 2.250378
439.6577 1.850101
440.1398 1.556496
440.6219 1.378284
441.1040 1.352257
441.5862 1.492893
442.0683 1.699799
442.5504 1.804283
443.0325 1.813774
443.5146 1.693920
443.9967 1.481773
444.4789 1.103165
444.9610 0.3932380
445.4431 0.5523610
445.9252 1.418797
446.4073 1.931358
446.8894 2.185616
447.3716 2.561722
447.8537 3.120598
448.3358 3.647209
448.8179 4.062458
449.3000 4.390755
449.7821 4.647530
450.2643 4.833054
450.7464 4.959240
451.2285 4.914993
451.7106 4.778618
452.1927 4.989773
452.6748 5.734531
453.1570 6.636101
453.6391 7.356087
454.1212 7.920525
454.6033 8.392380
455.0854 8.610954
455.5675 8.868771
456.0497 9.485676
456.5318 10.41413
457.0139 11.33480
457.4960 12.05602
457.9781 12.70348
458.4602 13.64881
458.9424 15.02016
459.4245 16.36279
459.9066 17.52363
460.3887 18.65573
460.8708 19.95084
461.3529 21.41866
461.8351 22.89454
462.3172 24.24984
462.7993 25.47836
463.2814 26.51013
463.7635 27.10958
464.2456 27.79594
464.7278 28.72875
465.2099 29.82451
465.6920 30.91767
466.1741 31.95525
466.6562 33.08443
467.1383 34.59010
467.6205 36.63341
468.1026 38.59454
468.5847 39.86564
469.0668 41.59114
469.5489 44.48416
470.0310 48.29748
470.5132 52.23500
470.9953 55.71894
471.4774 59.09291
471.9595 63.19351
472.4416 68.01421
472.9237 73.56815
473.4059 80.38606
473.8880 87.63277
474.3701 94.81813
474.8522 101.8787
475.3343 108.1381
475.8164 113.3024
476.2986 117.2819
476.7807 120.1215
477.2628 121.9701
477.7449 121.8428
478.2270 118.8981
478.7091 113.1583
479.1913 105.4684
479.6734 94.54341
480.1555 83.16274
480.6376 72.05600
481.1197 61.60696
481.6018 52.59966
482.0839 45.29962
482.5660 39.37506
483.0482 34.32015
483.5303 30.11471
484.0124 27.27048
484.4945 26.39813
484.9766 26.22368
485.4587 26.41376
485.9409 26.73461
486.4230 26.70480
486.9051 25.99994
487.3872 25.10586
487.8693 25.48622
488.3514 27.89397
488.8336 30.20257
489.3157 32.28577
489.7978 34.22781
490.2799 35.95381
490.7620 37.52883
491.2441 39.19513
491.7263 41.16292
492.2084 43.39178
492.6905 45.62815
493.1726 47.75912
493.6547 50.17735
494.1368 53.27959
494.6190 56.60503
495.1011 59.81241
495.5832 62.88829
496.0653 65.49658
496.5474 67.26384
497.0295 68.36699
497.5117 69.24181
497.9938 69.93777
498.4759 70.41927
498.9580 70.64069
499.4401 70.59459
499.9222 70.35007
500.4044 69.92565
500.8865 69.30420
501.3686 68.49126
501.8507 67.48087
502.3328 66.16872
502.8149 64.51984
503.2971 62.80843
503.7792 61.47504
504.2613 60.72041
504.7434 59.56087
505.2255 57.38538
505.7076 55.45332
506.1898 54.56996
506.6719 54.36868
507.1540 54.05490
507.6361 53.20868
508.1182 52.04704
508.6003 51.06431
509.0825 50.28673
509.5646 49.61572
510.0467 48.73620
510.5288 48.22392
511.0109 48.64670
511.4930 49.78285
511.9752 50.81329
512.4573 51.20599
512.9394 51.16596
513.4215 51.07349
513.9036 50.87587
514.3857 50.96699
514.8679 51.63647
515.3500 52.58436
515.8321 53.33663
516.3142 53.83162
516.7963 54.61636
517.2784 56.24063
517.7606 58.15065
518.2427 59.42953
518.7248 60.04011
519.2069 60.89966
519.6890 62.76268
520.1711 65.32167
520.6533 66.95764
521.1354 66.97118
521.6175 67.16219
522.0996 67.90314
522.5817 68.90987
523.0638 69.70115
523.5460 70.31519
524.0281 71.49501
524.5102 74.11050
524.9923 78.08811
525.4744 81.07344
525.9565 81.92828
526.4387 83.22987
526.9208 85.51793
527.4029 88.48058
527.8850 91.94347
528.3671 95.82092
528.8492 99.66749
529.3314 102.8511
529.8135 105.4717
530.2956 108.7734
530.7777 113.4088
531.2598 117.4876
531.7419 119.7157
532.2241 120.6282
532.7062 121.0615
533.1883 121.5297
533.6704 120.7770
534.1525 117.5778
534.6346 112.5565
535.1168 107.0716
535.5989 101.4262
536.0810 95.47388
536.5631 89.01862
537.0452 81.99403
537.5273 75.18063
538.0095 68.46857
538.4916 62.06696
538.9737 55.82877
539.4558 49.98054
539.9379 44.85160
540.4200 40.55829
540.9022 36.93741
541.3843 33.83155
541.8664 31.28957
542.3485 29.05121
542.8306 27.16142
543.3127 25.46355
543.7948 24.03519
544.2769 22.80159
544.7590 21.62278
545.2411 20.43997
545.7233 19.34444
546.2054 18.44285
546.6875 17.67865
547.1696 17.02382
547.6517 16.60823
548.1339 16.25286
548.6160 15.63420
549.0981 14.87289
549.5802 14.39554
550.0623 14.52646
550.5444 14.66002
551.0266 14.42621
551.5087 13.97247
551.9908 13.46984
552.4729 12.93198
552.9550 12.49448
553.4371 12.34838
553.9193 12.56372
554.4014 12.76426
554.8835 12.99727
555.3656 13.13411
555.8477 13.04229
556.3298 12.82264
556.8120 12.59240
557.2941 12.41250
557.7762 12.44897
558.2583 13.07642
558.7404 14.42062
559.2225 15.26172
559.7047 15.32301
560.1868 15.17337
560.6689 14.89853
561.1510 14.61865
561.6331 14.56824
562.1152 14.86200
562.5974 15.31799
563.0795 15.88742
563.5616 16.47310
564.0437 16.70995
564.5258 16.47119
565.0079 16.12276
565.4901 16.00327
565.9722 16.10283
566.4543 16.09869
566.9364 16.15406
567.4185 15.91894
567.9006 14.98153
568.3828 13.78286
568.8649 13.01675
569.3470 12.83290
569.8291 12.71736
570.3112 12.05602
570.7933 10.80403
571.2755 9.734184
571.7576 8.869766
572.2397 8.172165
572.7218 7.861385
573.2039 7.588676
573.6860 6.864029
574.1682 5.578434
574.6503 4.315197
575.1324 3.671890
575.6145 3.527077
576.0966 3.369015
576.5787 3.185284
577.0609 2.918095
577.5430 2.482384
578.0251 1.956398
578.5072 1.512836
578.9893 1.102661
579.4714 0.8919560
579.9536 1.015083
580.4357 1.334709
580.9178 1.826916
581.3999 2.412827
581.8820 2.688831
582.3641 2.289703
582.8463 1.366478
583.3284 0.7949710
583.8105 0.7585870
584.2926 0.8297160
584.7747 1.065430
585.2568 1.322216
585.7390 1.478886
586.2211 1.543232
586.7032 1.619400
587.1853 1.809097
587.6674 2.043869
588.1495 2.142544
588.6317 2.099705
589.1138 1.936497
589.5959 1.542358
590.0780 1.140804
590.5601 1.084709
591.0422 1.365959
591.5244 1.400978
592.0065 0.7980800
592.4886 4.1423999E-02
592.9707 0.4944340
593.4528 0.8029170
593.9349 0.9064600
594.4171 0.7991750
594.8992 0.5984420
595.3813 0.5135840
595.8634 0.6020320
596.3455 0.6378480
596.8276 0.5349850
597.3098 0.4775280
597.7919 0.5298920
598.2740 0.6845930
598.7561 0.9827040
599.2382 1.453876
599.7203 1.841221
600.2025 1.683254
600.6846 1.001537
601.1667 0.6254540
601.6488 0.7219390
602.1309 0.9610980
602.6130 1.285915
603.0952 1.570969
603.5773 1.471752
604.0594 0.6158560
604.5415 4.3179998E-03
605.0236 0.3704950
605.5057 1.204910
605.9879 1.727509
606.4700 1.800716
606.9521 1.550072
607.4342 1.016769
607.9163 0.2710910
608.3984 0.1476140
608.8806 0.1498370
609.3627 0.2463760
609.8448 0.2040750
610.3269 0.6759070
610.8090 0.6980550
611.2911 0.3080100
611.7733 9.8899998E-02
612.2554 0.2894170
612.7375 0.2759550
613.2196 2.7500000E-03
613.7017 0.5923770
614.1838 0.9582790
614.6660 0.8682520
615.1481 0.5755880
615.6302 0.3423610
616.1123 0.1645010
616.5944 3.1063000E-02
617.0765 0.2169150
617.5587 0.2742200
618.0408 0.2973140
618.5229 1.189171
619.0050 1.674248
619.4871 1.505154
619.9692 1.111259
620.4514 1.060474
620.9335 1.386028
621.4156 1.803249
621.8977 2.563068
622.3798 3.110111
622.8619 3.143909
623.3441 2.970917
623.8262 2.956417
624.3083 3.184109
624.7904 3.428772
625.2725 3.502396
625.7546 3.446514
626.2367 3.340328
626.7188 3.176029
627.2009 3.103901
627.6830 3.231125
628.1652 3.475956
628.6473 3.658779
629.1294 3.778370
629.6115 3.856564
630.0936 3.887314
630.5757 3.885815
631.0579 3.744900
631.5400 3.583618
632.0221 3.729843
632.5042 4.357906
632.9863 5.193417
633.4684 5.735535
633.9506 5.954456
634.4327 6.025311
634.9148 5.846518
635.3969 5.656279
635.8790 5.527271
636.3611 5.477882
636.8433 5.544437
637.3254 5.747429
637.8075 6.030346
638.2896 6.381054
638.7717 6.773487
639.2538 7.193039
639.7360 7.630705
640.2181 7.987316
640.7002 8.198133
641.1823 8.268826
641.6644 8.221016
642.1465 7.928682
642.6287 7.688541
643.1108 7.479639
643.5929 7.344912
644.0750 7.258251
644.5571 7.270065
645.0392 7.522633
645.5214 8.130585
646.0035 8.899975
646.4856 9.507553
646.9677 9.949188
647.4498 10.33624
647.9319 10.68254
648.4141 10.99053
648.8962 11.28220
649.3783 11.53571
649.8604 11.65182
650.3425 11.31120
650.8246 11.26571
651.3068 12.11609
651.7889 13.24690
652.2710 13.90290
652.7531 14.04370
653.2352 14.07436
653.7173 14.24662
654.1995 14.51943
654.6816 14.81712
655.1637 15.10338
655.6458 15.57145
656.1279 16.47578
656.6100 17.40670
657.0922 18.12883
657.5743 18.57947
658.0564 18.77265
658.5385 18.55456
659.0206 18.46722
659.5027 19.08970
659.9849 20.15659
660.4670 21.06305
660.9491 21.72208
661.4312 22.33678
661.9133 23.09482
662.3954 23.93997
662.8776 24.53865
663.3597 24.77921
663.8418 24.92027
664.3239 24.91314
664.8060 24.99414
665.2881 25.34363
665.7703 25.90096
666.2524 26.44062
666.7345 26.76737
667.2166 27.06202
667.6987 27.76023
668.1808 28.83851
668.6630 29.62916
669.1451 29.89588
669.6272 29.92697
670.1093 29.99577
670.5914 30.11487
671.0735 30.24683
671.5557 30.32725
672.0378 30.45701
672.5199 30.77941
673.0020 31.11389
673.4841 31.28208
673.9662 31.26081
674.4484 31.06819
674.9305 30.65153
675.4126 30.15724
675.8947 30.13642
676.3768 30.73980
676.8589 31.12509
677.3411 30.82403
677.8232 30.57105
678.3053 31.22122
678.7874 32.46449
679.2695 33.09253
679.7516 32.34467
680.2338 31.53185
680.7159 31.59965
681.1980 32.02903
681.6801 31.93552
682.1622 31.21531
682.6443 30.45292
683.1265 30.14025
683.6086 30.15903
684.0907 29.94445
684.5728 29.46951
685.0549 28.81692
685.5370 27.91860
686.0192 26.92069
686.5013 25.77929
686.9834 24.60061
687.4655 23.68347
687.9476 23.30273
688.4297 22.92464
688.9119 22.02657
689.3940 20.78011
689.8761 19.52790
690.3582 18.33585
690.8403 17.33929
691.3224 16.66459
691.8046 16.23750
692.2867 15.69964
692.7688 14.99270
693.2509 14.26152
693.7330 13.49465
694.2151 12.72854
694.6973 11.92931
695.1794 11.15093
695.6615 10.52964
696.1436 10.15429
696.6257 9.846268
697.1078 9.417847
697.5900 8.893208
698.0721 8.343304
698.5542 7.778854
699.0363 7.203926
699.5184 6.599297
700.0005 6.001801
700.4827 5.550690
700.9648 5.368828
701.4469 5.137375
701.9290 4.865791
702.4111 4.530979
702.8932 4.022820
703.3754 3.459312
703.8575 3.073715
704.3396 2.968895
704.8217 2.992741
705.3038 2.978874
705.7859 2.938065
706.2681 2.967598
706.7502 3.106899
707.2323 3.067806
707.7144 2.612946
708.1965 1.941681
708.6786 1.538956
709.1607 1.559917
709.6428 1.379326
710.1249 0.6022910
710.6071 3.5080001E-02
711.0892 6.1416999E-02
711.5713 0.5336040
712.0534 0.7741320
712.5355 0.5752720
713.0176 0.1188090
713.4998 0.5938610
713.9819 1.433083
714.4640 1.568096
714.9461 0.8538090
715.4282 0.3346180
715.9103 0.5599100
716.3925 1.087822
716.8746 1.169464
717.3567 0.7182880
717.8388 0.6245960
718.3209 1.427322
718.8030 2.095570
719.2852 2.007584
719.7673 1.551308
720.2494 1.203793
720.7315 1.111626
721.2136 1.279888
721.6957 1.850964
722.1779 2.623425
722.6600 2.789436
723.1421 2.268703
723.6242 1.842907
724.1063 1.735889
724.5884 1.799820
725.0706 1.936588
725.5527 2.133869
726.0348 2.230125
726.5169 2.076603
726.9990 1.992409
727.4811 2.266922
727.9633 2.548843
728.4454 2.386932
728.9275 1.815094
729.4096 1.236519
729.8917 0.9111900
730.3738 0.7865370
730.8560 0.8160400
731.3381 1.008648
731.8202 1.003628
732.3023 0.6527330
732.7844 0.3247450
733.2665 0.4083480
733.7487 0.7236140
734.2308 0.5923650
734.7129 0.2096210
735.1950 1.023594
735.6771 1.860325
736.1592 2.544403
736.6414 2.852921
737.1235 2.905327
737.6056 2.996315
738.0877 3.261696
738.5698 3.622066
739.0519 3.888165
739.5341 4.106693
740.0162 4.845421
740.4983 6.293152
740.9804 7.454216
741.4625 7.678974
741.9446 7.466892
742.4268 7.768208
742.9089 8.696671
743.3910 9.490341
743.8731 10.06113
744.3552 10.51307
744.8373 10.65573
745.3195 10.81815
745.8016 11.55985
746.2837 12.93697
746.7658 14.33986
747.2479 15.17376
747.7300 15.65153
748.2122 16.28197
748.6943 17.06567
749.1764 18.20285
749.6585 19.87760
750.1406 21.58505
750.6227 22.81219
751.1049 23.56453
751.5870 24.34951
752.0691 25.25499
752.5512 26.07001
753.0333 26.42439
753.5154 26.93880
753.9976 28.34385
754.4797 30.39581
754.9618 32.17383
755.4439 33.13362
755.9260 33.92172
756.4081 35.39621
756.8903 37.43435
757.3724 39.62099
757.8545 41.93800
758.3366 43.85830
758.8187 44.92931
759.3008 45.56143
759.7830 46.79505
760.2651 48.94165
760.7472 50.97749
761.2293 52.75514
761.7114 54.57614
762.1935 56.64422
762.6757 58.79782
763.1578 60.90648
763.6399 62.91720
764.1220 64.59769
764.6041 65.56030
765.0862 66.21733
765.5684 67.29586
766.0505 68.66970
766.5326 69.71802
767.0147 70.26210
767.4968 70.36547
767.9789 70.02636
768.4611 69.26087
768.9432 68.62306
769.4253 68.46808
769.9074 67.85886
770.3895 66.31756
770.8716 64.53781
771.3538 62.94545
771.8359 61.49347
772.3180 60.01561
772.8001 58.52694
773.2822 56.98355
773.7643 55.33540
774.2465 53.55157
774.7286 51.58788
775.2107 49.51469
775.6928 47.46217
776.1749 45.44172
776.6570 43.52690
777.1392 41.92260
777.6213 40.68853
778.1034 39.49118
778.5855 38.25730
779.0676 37.13450
779.5497 36.20280
780.0319 35.37017
780.5140 34.58096
780.9961 33.87076
781.4782 33.26112
781.9603 32.73244
782.4424 32.28025
782.9246 31.89735
783.4067 31.58636
783.8888 31.27495
784.3709 31.02197
784.8530 31.12242
785.3351 31.85816
785.8173 32.98659
786.2994 33.93037
786.7815 34.70796
787.2636 35.53380
787.7457 36.38268
788.2278 37.40614
788.7100 38.66794
789.1921 40.19284
789.6742 42.12216
790.1563 44.94148
790.6384 47.29984
791.1205 48.56828
791.6026 49.89449
792.0847 51.70032
792.5668 54.11860
793.0490 57.48721
793.5311 61.87586
794.0132 66.21160
794.4953 69.27295
794.9774 71.87012
795.4595 75.33968
795.9417 79.67648
796.4238 84.52801
796.9059 89.80057
797.3880 95.42075
797.8701 101.2362
798.3522 107.3216
798.8344 114.3400
799.3165 122.4949
799.7986 131.2309
800.2807 140.3867
800.7628 150.1630
801.2449 160.3938
801.7271 171.3174
802.2092 183.5387
802.6913 197.5503
803.1734 211.9132
803.6555 225.6117
804.1376 239.3506
804.6198 253.6493
805.1019 268.6353
805.5840 284.7882
806.0661 302.2037
806.5482 320.3387
807.0303 338.3508
807.5125 356.3373
807.9946 374.7248
808.4767 393.4584
808.9588 413.4651
809.4409 435.3519
809.9230 458.0145
810.4052 480.3195
810.8873 502.2482
811.3694 523.8641
811.8515 543.8057
812.3336 565.1584
812.8157 589.3990
813.2979 614.4767
813.7800 638.6116
814.2621 661.9400
814.7442 685.8302
815.2263 711.2495
815.7084 734.9621
816.1906 753.5226
816.6727 767.9081
817.1548 780.6264
817.6369 791.4732
818.1190 797.7789
818.6011 798.3400
819.0833 794.0084
819.5654 785.9824
820.0475 774.2465
820.5296 758.2015
821.0117 736.5901
821.4938 712.9420
821.9760 687.8566
822.4581 661.3406
822.9402 633.3192
823.4223 603.9752
823.9044 574.1990
824.3865 542.5751
824.8687 513.1427
825.3508 488.5999
825.8329 465.9465
826.3150 442.3070
826.7971 418.0055
827.2792 394.6308
827.7614 372.7747
828.2435 352.7637
828.7256 335.3732
829.2077 320.1307
829.6898 305.2560
830.1719 290.7652
830.6541 276.6945
831.1362 263.0561
831.6183 250.0640
832.1004 237.8779
832.5825 226.5660
833.0646 215.7860
833.5468 205.3956
834.0289 195.8724
834.5110 187.5860
834.9931 179.8868
835.4752 172.5489
835.9573 165.4231
836.4395 158.0401
836.9216 150.0608
837.4037 142.5111
837.8858 135.9573
838.3679 130.0869
838.8500 124.7020
839.3322 119.6628
839.8143 114.6877
840.2964 109.7069
840.7785 104.9728
841.2606 100.7981
841.7427 97.11324
842.2249 93.87414
842.7070 91.15521
843.1891 88.18327
843.6712 84.62678
844.1533 81.18161
844.6354 78.57454
845.1176 76.64816
845.5997 74.48869
846.0818 71.55959
846.5639 69.27610
847.0460 68.10318
847.5281 66.97649
848.0103 65.35836
848.4924 63.55243
848.9745 61.92397
849.4566 60.50297
849.9387 59.30873
850.4208 58.56155
850.9030 57.87427
851.3851 56.79749
851.8672 55.56769
852.3493 54.73693
852.8314 54.31390
853.3135 53.64761
853.7957 52.21957
854.2778 50.35881
854.7599 48.81654
855.2420 47.59605
855.7241 46.39905
856.2062 45.19247
856.6884 44.00803
857.1705 42.90097
857.6526 41.78432
858.1347 40.52273
858.6168 39.16956
859.0989 37.44006
859.5811 34.81043
860.0632 32.49813
860.5453 30.88902
861.0274 29.61056
861.5095 28.46342
861.9916 27.34731
862.4738 26.02002
862.9559 24.28838
863.4380 22.50771
863.9201 20.90452
864.4022 19.38944
864.8843 17.78313
865.3665 16.19407
865.8486 15.04106
866.3307 14.45053
866.8128 13.89252
867.2949 12.56092
867.7770 10.73056
868.2592 9.700237
868.7413 9.485184
869.2234 9.055969
869.7055 8.063614
870.1876 7.059734
870.6697 6.598808
871.1519 6.566589
871.6340 6.328548
872.1161 5.776287
872.5981 5.229401
873.0803 4.615314
873.5624 4.123478
874.0445 3.951050
874.5266 3.887955
875.0087 3.591660
875.4908 3.006645
875.9730 2.513515
876.4551 2.363522
876.9372 2.221756
877.4193 1.894352
877.9014 1.446663
878.3835 0.8624800
878.8657 0.2297710
879.3478 0.1541600
879.8299 8.1088997E-02
880.3120 0.2006720
880.7941 0.4509740
881.2762 0.6168980
881.7584 0.4527470
882.2405 2.8069001E-02
882.7226 0.4457820
883.2047 0.6309890
883.6868 0.6759990
884.1689 0.6895790
884.6511 0.6744460
885.1332 0.6977350
885.6153 0.7455180
886.0974 0.8850590
886.5795 1.250076
887.0616 1.556183
887.5438 1.515892
888.0259 1.252846
888.5080 1.140087
888.9901 1.213726
889.4722 1.372002
889.9543 1.755260
890.4365 2.054340
890.9186 2.107189
891.4007 1.974888
891.8828 1.674522
892.3649 1.253479
892.8470 0.9518360
893.3292 0.9987340
893.8113 1.103680
894.2934 0.8792460
894.7755 0.5642740
895.2576 0.6420290
895.7397 1.086380
896.2219 1.502762
896.7040 1.683567
897.1861 1.705189
897.6682 1.686687
898.1503 1.614231
898.6324 1.295025
899.1146 0.6955220
899.5967 0.4216420
900.0788 0.7505040
900.5609 1.115334
901.0430 0.9085350
901.5251 0.2624050
902.0073 1.4675000E-02
902.4894 0.3819660
902.9715 0.7077980
903.4536 1.075039
903.9357 1.260559
904.4178 0.9485760
904.9000 0.5082660
905.3821 0.5440390
905.8642 1.137083
906.3463 1.429768
906.8284 0.9931160
907.3105 0.4803980
907.7927 7.1488999E-02
908.2748 0.1785030
908.7569 0.1170020
909.2390 0.1479030
909.7211 0.2920930
910.2032 0.1656070
910.6854 8.3641000E-02
911.1675 0.4444960
911.6496 0.7701990
912.1317 0.7543160
912.6138 0.4801980
913.0959 0.2496170
913.5781 0.1596390
914.0602 0.1757640
914.5423 0.2784790
915.0244 0.4400370
915.5065 0.5854170
915.9886 0.7148110
916.4708 0.7884940
916.9529 0.7874600
917.4350 0.8040750
917.9171 0.8882680
918.3992 1.019686
918.8813 1.165701
919.3635 1.329134
919.8456 1.488523
920.3277 1.686756
920.8098 1.811522
921.2919 1.918909
921.7740 1.871164
922.2562 1.353462
922.7383 0.6075250
923.2204 0.3894350
923.7025 1.032757
924.1846 1.565210
924.6667 1.668310
925.1489 1.676746
925.6310 1.775509
926.1131 1.913721
926.5952 2.016386
927.0773 2.066269
927.5594 2.054409
928.0416 1.878248
928.5237 1.800718
929.0058 2.217344
929.4879 2.807079
929.9700 3.017305
930.4521 2.895884
930.9343 2.812954
931.4164 2.927605
931.8985 3.169704
932.3806 3.486902
932.8627 3.855413
933.3448 4.256121
933.8270 4.667387
934.3091 4.782337
934.7912 4.517134
935.2733 4.268108
935.7554 4.311104
936.2375 4.573568
936.7197 4.907078
937.2018 5.342035
937.6839 5.663885
938.1660 5.855082
938.6481 5.971397
939.1302 5.962652
939.6124 5.973511
940.0945 6.200392
940.5766 6.601719
941.0587 6.823093
941.5408 6.777830
942.0229 6.698463
942.5051 6.363396
942.9872 6.251316
943.4693 6.816650
943.9514 7.627138
944.4335 8.081450
944.9156 8.113571
945.3978 8.084475
945.8799 8.062428
946.3620 8.083838
946.8441 8.234608
947.3262 8.376450
947.8083 8.255514
948.2905 8.009766
948.7726 8.095661
949.2547 8.691219
949.7368 9.199324
950.2189 8.928299
950.7010 8.421019
951.1832 8.450891
951.6653 8.821253
952.1474 9.052961
952.6295 9.064722
953.1116 9.004522
953.5938 8.948236
954.0759 8.938972
954.5580 9.150860
955.0400 9.510323
955.5222 9.517345
956.0043 9.168188
956.4864 8.936623
956.9685 8.990650
957.4506 9.172136
957.9327 9.342438
958.4149 9.458929
958.8970 9.318298
959.3791 8.817907
959.8612 8.757214
960.3433 9.385504
960.8254 9.800440
961.3076 9.429436
961.7897 8.832779
962.2718 8.814257
962.7539 9.394217
963.2360 9.827932
963.7181 10.06522
964.2003 10.15989
964.6824 10.22736
965.1645 10.13899
965.6466 9.567959
966.1287 8.873180
966.6108 8.707151
967.0930 9.166359
967.5751 9.591803
968.0572 10.04825
968.5393 10.23477
969.0214 9.645918
969.5035 9.048529
969.9857 9.297817
970.4678 10.10060
970.9499 10.58203
971.4320 10.45323
971.9141 10.17761
972.3962 9.995033
972.8784 9.821535
973.3605 9.496214
973.8426 9.169165
974.3247 9.072508
974.8068 9.221998
975.2889 9.529243
975.7711 9.981091
976.2532 10.41154
976.7353 10.62864
977.2174 10.71713
977.6995 10.78567
978.1816 10.85828
978.6638 11.04060
979.1459 11.33491
979.6280 11.43041
980.1101 11.00932
980.5922 10.39252
981.0743 10.37160
981.5565 10.87702
982.0386 11.20024
982.5207 11.27961
983.0028 11.39538
983.4849 11.67064
983.9670 11.90520
984.4492 11.84888
984.9313 11.99496
985.4134 12.00348
985.8955 11.88796
986.3776 11.96320
986.8597 11.65906
987.3419 11.62084
987.8240 12.24560
988.3061 13.09230
988.7882 13.52806
989.2703 13.55951
989.7524 13.78078
990.2346 14.36047
990.7167 14.74579
991.1988 14.66413
991.6809 14.66693
992.1630 15.15317
992.6451 15.86985
993.1273 16.37787
993.6094 16.65759
994.0915 16.89212
994.5736 17.13181
995.0557 17.27511
995.5378 17.14190
996.0200 17.05809
996.5021 17.35827
996.9842 17.83080
997.4663 18.03436
997.9484 17.88383
998.4305 17.67486
998.9127 17.39037
999.3948 17.16922
999.8769 17.29329
1000.359 17.33721
1000.841 16.74274
1001.323 15.74696
1001.805 15.11614
1002.287 15.14952
1002.770 14.95508
1003.252 13.75799
1003.734 12.50884
1004.216 11.92472
1004.698 11.69384
1005.180 11.46189
1005.662 11.11303
1006.144 10.55329
1006.627 9.696220
1007.109 8.949175
1007.591 8.770145
1008.073 8.778320
1008.555 8.661592
1009.037 8.342062
1009.519 7.515392
1010.001 6.307905
1010.483 5.469002
1010.966 5.464491
1011.448 5.739174
1011.930 5.671618
1012.412 5.404385
1012.894 5.191668
1013.376 5.032549
1013.858 4.881531
1014.340 4.725233
1014.823 4.589872
1015.305 4.500963
1015.787 4.413715
1016.269 4.246275
1016.751 4.012568
1017.233 3.751488
1017.715 3.476357
1018.197 3.247822
1018.679 3.085064
1019.162 3.045273
1019.644 3.202812
1020.126 3.414783
1020.608 3.304880
1021.090 2.904724
1021.572 2.703821
1022.054 2.730101
1022.536 2.659752
1023.018 2.367640
1023.501 2.142534
1023.983 2.275345
1024.465 2.613773
1024.947 2.654684
1025.429 2.367157
1025.911 2.177752
1026.393 2.134144
1026.875 1.966249
1027.358 1.517082
1027.840 1.136482
1028.322 1.199566
1028.804 1.574812
1029.286 1.727612
1029.768 1.629072
1030.250 1.416483
1030.732 1.033485
1031.214 0.7070620
1031.697 0.5342600
1032.179 0.4034600
1032.661 0.1461280
1033.143 0.1552260
1033.625 4.3788999E-02
1034.107 0.7877790
1034.589 1.236729
1035.071 1.021427
1035.553 0.9431340
1036.036 1.512945
1036.518 2.061298
1037.000 1.811544
1037.482 0.9253540
1037.964 0.3375530
1038.446 0.1121430
1038.928 7.5099997E-02
1039.410 0.4358480
1039.893 0.6992650
1040.375 0.6038840
1040.857 0.4128430
1041.339 0.3880050
1041.821 0.4978410
1042.303 0.5642580
1042.785 0.5052160
1043.267 0.5724820
1043.750 1.005495
1044.232 1.257114
1044.714 0.9649790
1045.196 0.5337600
1045.678 0.3540510
1046.160 0.3885410
1046.642 0.3953620
1047.124 0.3417930
1047.606 0.2831950
1048.089 0.1807570
1048.571 0.1492290
1049.053 0.3155720
1049.535 0.4687950
1050.017 0.3118240
1050.499 4.7603998E-02
1050.981 0.1584730
1051.463 0.1716550
1051.945 0.4282410
1052.428 0.4798990
1052.910 0.4656500
1053.392 0.3914540
1053.874 0.3275170
1054.356 0.3880540
1054.838 0.5158230
1055.320 0.4757100
1055.802 0.1306950
1056.285 6.6623002E-02
1056.767 0.1975900
1057.249 0.4134710
1057.731 0.2074830
1058.213 6.2054001E-02
1058.695 2.8778000E-02
1059.177 0.3723940
1059.659 0.5194500
1060.141 0.3212610
1060.624 0.1421090
1061.106 0.1587780
1061.588 0.1647280
1062.070 0.1061400
1062.552 0.3114580
1063.034 6.9339000E-02
1063.516 0.7845300
1063.998 1.060555
1064.480 0.6450880
1064.963 0.3395520
1065.445 0.5945940
1065.927 0.8763750
1066.409 0.9682250
1066.891 0.9020580
1067.373 0.5861630
1067.855 0.1767100
1068.337 3.7854001E-02
1068.820 0.2718060
1069.302 0.4601300
1069.784 0.4030810
1070.266 0.2840710
1070.748 7.6453999E-02
1071.230 4.4286001E-02
1071.712 0.2222640
1072.194 0.6568090
1072.677 0.7444430
1073.159 0.3811530
1073.641 0.1037060
1074.123 0.2207030
1074.605 0.3919530
1075.087 0.4932910
1075.569 0.5285840
1076.051 0.4857430
1076.533 0.3874050
1077.016 0.2317820
1077.498 3.5494000E-02
1077.980 3.2577001E-02
1078.462 0.2464320
1078.944 0.4536370
1079.426 0.2540710
1079.908 3.0941000E-02
1080.390 0.1365250
1080.872 0.4121070
1081.354 0.6077180
1081.837 0.6757650
1082.319 0.6450650
1082.801 0.4551440
1083.283 0.3066470
1083.765 0.3855130
1084.247 0.4526950
1084.729 0.2180860
1085.211 6.8608999E-02
1085.694 7.9100003E-04
1086.176 0.3919750
1086.658 0.6880940
1087.140 0.7547040
1087.622 0.6999630
1088.104 0.3976740
1088.586 0.1798780
1089.068 0.3632720
1089.551 0.6743520
1090.033 0.7919510
1090.515 0.7274430
1090.997 0.6675940
1091.479 0.7035810
1091.961 0.6513670
1092.443 0.2381590
1092.925 5.7588998E-02
1093.407 0.1302860
1093.890 0.4662700
1094.372 0.6752370
1094.854 0.7344300
1095.336 0.6465770
1095.818 0.3933850
1096.300 0.1794330
1096.782 2.3918999E-02
1097.264 1.1023000E-02
1097.746 0.2395060
1098.229 0.4818890
1098.711 0.4580910
1099.193 0.2514160
1099.675 7.7300002E-03
1100.157 0.2520100
1100.639 0.3347290
1101.121 7.2880001E-03
1101.603 0.2508210
1102.086 0.1084610
1102.568 2.0205000E-02
1103.050 0.1932590
1103.532 0.5255780
1104.014 0.6877580
1104.496 0.6561070
1104.978 0.4729180
1105.460 9.0244003E-02
1105.943 0.4084210
1106.425 0.1553040
1106.907 8.6962000E-02
1107.389 2.7200000E-02
1107.871 0.2088200
1108.353 0.1088710
1108.835 0.1727480
1109.317 0.3080430
1109.799 0.2260880
1110.281 0.1418950
1110.764 1.3991000E-02
1111.246 5.8564998E-02
1111.728 0.2110630
1112.210 0.4735740
1112.692 0.4149540
1113.174 0.1666130
1113.656 9.0475999E-02
1114.138 0.2557260
1114.621 0.2789310
1115.103 0.1007600
1115.585 0.1804470
1116.067 0.4505840
1116.549 1.007820
1117.031 0.9838060
1117.513 0.6464860
1117.995 0.3942250
1118.478 0.2279090
1118.960 0.1951550
1119.442 0.3157040
1119.924 0.4748390
1120.406 0.7155860
1120.888 0.9027540
1121.370 0.9296670
1121.852 0.8745830
1122.334 0.8097610
1122.817 0.7367700
1123.299 0.6546010
1123.781 0.6645100
1124.263 0.5410830
1124.745 0.7248920
1125.227 0.8878160
1125.709 0.9957430
1126.191 0.9684830
1126.673 0.7001700
1127.156 0.3228910
1127.638 0.1731150
1128.120 0.2606490
1128.602 0.2854430
1129.084 0.2435730
1129.566 0.1487190
1130.048 1.4481000E-02
1130.530 4.6815999E-02
1131.013 0.1874530
1131.495 0.4948980
1131.977 0.5727570
1132.459 0.7331470
1132.941 0.8533240
1133.423 0.8352930
1133.905 0.9383750
1134.387 0.8601040
1134.870 0.7340060
1135.352 0.6088350
1135.834 0.5663550
1136.316 0.7120000
1136.798 0.6211500
1137.280 0.8700850
1137.762 0.6540290
1138.244 0.6132770
1138.726 0.7053910
1139.208 0.5687680
1139.691 0.1671510
1140.173 1.7215000E-02
1140.655 0.3444050
1141.137 0.7874340
1141.619 0.6085360
1142.101 0.1888210
1142.583 0.2514860
1143.065 0.6081980
1143.548 0.7772660
1144.030 0.7534590
1144.512 0.7732890
1144.994 0.9268370
1145.476 1.003242
1145.958 0.7835260
1146.440 0.4708290
1146.922 0.1950550
1147.405 6.5850001E-03
1147.887 1.0825000E-02
1148.369 0.1367610
1148.851 0.2329060
1149.333 0.2776580
1149.815 0.3630560
1150.297 0.5555970
1150.779 0.7319170
1151.261 0.7982930
1151.744 0.8529470
1152.226 1.064259
1152.708 1.232689
1153.190 1.046929
1153.672 0.6077640
1154.154 0.2837830
1154.636 0.1658970
1155.118 9.2666000E-02
1155.600 6.9045000E-02
1156.083 7.3590003E-02
1156.565 0.3788890
1157.047 0.7957990
1157.529 0.7646080
1158.011 0.4969350
1158.493 0.3622700
1158.975 0.3921410
1159.457 0.3801320
1159.940 0.1549400
1160.422 0.1489630
1160.904 0.5879840
1161.386 0.9433960
1161.868 1.014198
1162.350 0.9521200
1162.832 0.8648780
1163.314 0.7643850
1163.796 0.7081260
1164.279 0.7736180
1164.761 0.5425280
1165.243 0.1806340
1165.725 0.5167520
1166.207 0.2243590
1166.689 0.3088830
1167.171 0.9393010
1167.653 1.435413
1168.135 1.423176
1168.618 1.013825
1169.100 0.8817670
1169.582 1.024367
1170.064 0.8731850
1170.546 0.3884140
1171.028 2.7636001E-02
1171.510 5.5681001E-02
1171.992 0.1111970
1172.474 0.5531000
1172.957 0.9783920
1173.439 0.7157500
1173.921 1.023167
1174.403 1.001755
1174.885 0.8455470
1175.367 0.8544840
1175.849 0.2360290
1176.331 0.1526430
1176.814 5.3009000E-02
1177.296 0.3308700
1177.778 0.1255270
1178.260 0.1205730
1178.742 0.2589530
1179.224 0.8024850
1179.706 0.7478320
1180.188 0.4014930
1180.671 0.5996420
1181.153 1.345110
1181.635 1.738275
1182.117 1.293035
1182.599 0.7968210
1183.081 0.6313870
1183.563 0.5957140
1184.045 0.6258800
1184.527 0.6719730
1185.010 0.6711210
1185.492 0.6568030
1185.974 0.7469410
1186.456 0.9700410
1186.938 1.041265
1187.420 0.7029610
1187.902 0.5307020
1188.384 0.7642860
1188.866 1.003263
1189.349 1.076425
1189.831 1.066532
1190.313 1.085123
1190.795 1.086013
1191.277 0.8403840
1191.759 0.1938940
1192.241 3.4256998E-02
1192.723 0.5399990
1193.206 0.9050360
1193.688 0.9679160
1194.170 0.8820100
1194.652 0.6625710
1195.134 0.5040360
1195.616 0.7229130
1196.098 1.194720
1196.580 1.382215
1197.063 1.316646
1197.545 1.234231
1198.027 1.126563
1198.509 1.020867
1198.991 0.9137440
1199.473 0.6891510
1199.955 0.2358260
1200.437 0.1115260
1200.919 0.3040410
1201.401 4.6043001E-02
1201.884 0.8249840
1202.366 0.3040010
1202.848 0.2664630
1203.330 0.6362780
1203.812 0.8441510
1204.294 0.7303060
1204.776 0.6022830
1205.258 0.6638480
1205.741 0.7092140
1206.223 0.4868130
1206.705 0.3266320
1207.187 0.5949750
1207.669 0.9924880
1208.151 1.179267
1208.633 1.149154
1209.115 0.9772520
1209.598 0.6198390
1210.080 0.4472070
1210.562 0.6037370
1211.044 0.8158810
1211.526 1.079561
1212.008 1.335917
1212.490 1.690065
1212.972 1.870076
1213.454 1.417749
1213.937 0.5419970
1214.419 0.2988720
1214.901 0.8721010
1215.383 1.067286
1215.865 0.7927470
1216.347 0.7261710
1216.829 1.060527
1217.311 1.217271
1217.793 0.8020160
1218.276 0.3463700
1218.758 0.6420350
1219.240 1.313103
1219.722 1.206699
1220.204 0.5658840
1220.686 0.2127070
1221.168 0.1769160
1221.650 0.3078090
1222.133 0.5437750
1222.615 0.8309110
1223.097 1.144261
1223.579 1.329870
1224.061 1.179840
1224.543 0.9957300
1225.025 1.097730
1225.507 1.296635
1225.990 1.381507
1226.472 1.367902
1226.954 1.336176
1227.436 1.299438
1227.918 1.231467
1228.400 1.055928
1228.882 0.9632770
1229.364 1.116521
1229.846 1.187305
1230.328 0.9478040
1230.811 0.6667640
1231.293 0.5149760
1231.775 0.5118650
1232.257 0.8158820
1232.739 1.413182
1233.221 1.640183
1233.703 1.422427
1234.185 1.136742
1234.668 0.7791380
1235.150 0.5431480
1235.632 0.4955970
1236.114 0.5676220
1236.596 0.7248780
1237.078 0.8697110
1237.560 0.7872660
1238.042 0.5711890
1238.525 0.5426130
1239.007 0.6439910
1239.489 0.7141350
1239.971 0.7314600
1240.453 0.6900640
1240.935 0.6080970
1241.417 0.6243540
1241.899 0.8613150
1242.381 1.093678
1242.864 1.111873
1243.346 1.078581
1243.828 1.092071
1244.310 1.106894
1244.792 1.040709
1245.274 0.9449430
1245.756 0.9684140
1246.238 1.129476
1246.720 1.196031
1247.203 1.045815
1247.685 0.9340600
1248.167 0.8119490
1248.649 0.8586030
1249.131 1.344151
1249.613 1.648693
1250.095 1.211039
1250.577 0.4038910
1251.059 8.9358002E-02
1251.542 0.2688290
1252.024 2.0620000E-02
1252.506 0.6530360
1252.988 0.9309350
1253.470 0.7525070
1253.952 0.3985750
1254.434 1.8393001E-02
1254.916 0.1855430
1255.399 0.1298200
1255.881 0.6786360
1256.363 1.369130
1256.845 1.909209
1257.327 1.712206
1257.809 1.177178
1258.291 0.8353900
1258.773 0.7113410
1259.255 0.7584030
1259.738 0.9199550
1260.220 0.9338350
1260.702 0.5877740
1261.184 0.4212610
1261.666 0.7282300
1262.148 1.084373
1262.630 1.416494
1263.112 1.639886
1263.594 1.693756
1264.077 1.606207
1264.559 1.369785
1265.041 1.018395
1265.523 0.8501080
1266.005 0.8836400
1266.487 1.033114
1266.969 1.324725
1267.451 1.420025
1267.934 1.231782
1268.416 0.9124800
1268.898 0.8399360
1269.380 0.8728830
1269.862 0.8710620
1270.344 0.7991740
1270.826 0.7504070
1271.308 0.6649960
1271.791 0.5516200
1272.273 0.4575830
1272.755 0.5463180
1273.237 0.7483810
1273.719 0.6912600
1274.201 0.2156300
1274.683 4.3187000E-02
1275.165 0.4491990
1275.647 0.8502350
1276.130 0.7999050
1276.612 0.6205970
1277.094 0.4155720
1277.576 0.2622830
1278.058 0.2839040
1278.540 0.4009250
1279.022 0.3898530
1279.504 0.5044190
1279.986 0.2041410
1280.469 0.5543580
1280.951 0.7487570
1281.433 0.7283300
1281.915 0.5572120
1282.397 0.2537780
1282.879 1.9482000E-02
1283.361 4.9009998E-03
1283.843 9.5702000E-02
1284.326 5.7142999E-02
1284.808 0.0000000E+00
