#Shining_header
#Data type:raman_database
#CAS:Not entered
#Material scientific name:Pharmacolite
#Manufacturer:Not entered
#Laser model:Not entered
#Spectrometer model:Not entered
#Testing unit:Not entered
#Test time:Not entered
#Other experimental details:Not entered
#Shining_data
95.75177 0.0000000E+00
96.23389 33.57568
96.71600 74.63428
97.19812 114.5044
97.68024 152.1221
98.16235 185.9316
98.64447 214.0801
99.12659 227.5444
99.60870 240.6221
100.0908 235.0542
100.5729 224.5537
101.0551 210.6636
101.5372 193.7783
102.0193 173.3501
102.5014 149.1509
102.9835 109.6436
103.4656 81.09521
103.9478 65.94629
104.4299 59.25781
104.9120 53.00293
105.3941 47.71729
105.8762 44.37402
106.3583 41.54883
106.8405 38.81543
107.3226 35.48438
107.8047 30.78174
108.2868 24.67285
108.7689 17.88379
109.2510 10.78320
109.7332 8.795081
110.2153 2.793945
110.6974 6.348145
111.1795 8.195801
111.6616 9.410645
112.1437 10.41211
112.6259 10.30322
113.1080 8.169434
113.5901 4.178711
114.0722 0.8974610
114.5543 7.649414
115.0364 15.90723
115.5185 21.65137
116.0007 20.38916
116.4828 20.70361
116.9649 27.42139
117.4470 39.48486
117.9291 54.03516
118.4112 65.38477
118.8934 71.65234
119.3755 79.64648
119.8576 87.73242
120.3397 98.31494
120.8218 113.1226
121.3039 132.8037
121.7861 156.1328
122.2682 179.8350
122.7503 203.6909
123.2324 228.0449
123.7145 256.4614
124.1966 284.8320
124.6788 307.7427
125.1609 322.5024
125.6430 328.9473
126.1251 325.5845
126.6072 310.7534
127.0893 290.6958
127.5715 265.9785
128.0536 237.3701
128.5357 207.9731
129.0178 178.8203
129.4999 150.7935
129.9821 126.7490
130.4642 107.4121
130.9463 91.59668
131.4284 78.77930
131.9105 69.48926
132.3926 60.76660
132.8748 48.50293
133.3569 34.99902
133.8390 25.24316
134.3211 24.47021
134.8032 29.59521
135.2853 29.50586
135.7674 20.69336
136.2496 11.06201
136.7317 4.022461
137.2138 0.6240230
137.6959 3.591309
138.1780 5.139648
138.6601 5.119629
139.1423 5.058105
139.6244 5.999023
140.1065 5.975586
140.5886 3.590820
141.0707 0.8286130
141.5528 5.606445
142.0350 8.380859
142.5171 6.823242
142.9992 9.689941
143.4813 19.84863
143.9634 31.50732
144.4455 40.94727
144.9277 47.19092
145.4098 51.80127
145.8919 57.13281
146.3740 62.18164
146.8561 70.18164
147.3382 83.04883
147.8204 98.40088
148.3025 113.8813
148.7846 128.9731
149.2667 142.8159
149.7488 152.8125
150.2309 157.6948
150.7131 164.0815
151.1952 175.9224
151.6773 191.5591
152.1594 205.4165
152.6415 214.9453
153.1236 222.0820
153.6058 230.2358
154.0879 239.7349
154.5700 249.6523
155.0521 259.6953
155.5342 269.8784
156.0163 278.7646
156.4985 284.9097
156.9806 289.7412
157.4627 294.8921
157.9448 301.1504
158.4269 305.9053
158.9090 304.5708
159.3912 294.6201
159.8733 284.8174
160.3554 279.0371
160.8375 273.7368
161.3196 265.4810
161.8017 252.7158
162.2839 236.9741
162.7660 223.1465
163.2481 212.4805
163.7302 202.2505
164.2123 191.8862
164.6944 181.6187
165.1766 171.6533
165.6587 161.9551
166.1408 152.8193
166.6229 144.9321
167.1050 137.9326
167.5871 132.3369
168.0693 128.1367
168.5514 125.1182
169.0335 123.3047
169.5156 122.9062
169.9977 123.6841
170.4798 122.7954
170.9620 117.9727
171.4441 114.6851
171.9262 115.8242
172.4083 120.7534
172.8904 126.9546
173.3725 132.9282
173.8547 138.4302
174.3368 142.9824
174.8189 146.2944
175.3010 149.5972
175.7831 154.1396
176.2652 160.0239
176.7474 165.7524
177.2295 170.2666
177.7116 173.7446
178.1937 176.4072
178.6758 177.2710
179.1579 177.6968
179.6401 180.2666
180.1222 186.0029
180.6043 190.7661
181.0864 192.0864
181.5685 190.7725
182.0506 187.6338
182.5328 182.0479
183.0149 175.0132
183.4970 169.4775
183.9791 165.3018
184.4612 163.2290
184.9433 164.1489
185.4255 166.9683
185.9076 169.8198
186.3897 171.4062
186.8718 171.8950
187.3539 172.9678
187.8360 173.4468
188.3182 176.0293
188.8003 182.1797
189.2824 191.0112
189.7645 201.0410
190.2466 211.5771
190.7287 222.8477
191.2109 229.8389
191.6930 229.3809
192.1751 227.7891
192.6572 227.9521
193.1393 228.8638
193.6214 227.5039
194.1036 221.1304
194.5857 209.1211
195.0678 195.0967
195.5499 176.9053
196.0320 159.1855
196.5141 144.6084
196.9963 132.8755
197.4784 121.5229
197.9605 108.1797
198.4426 92.46436
198.9247 80.29932
199.4068 73.14160
199.8890 67.79980
200.3711 61.86133
200.8532 55.35303
201.3353 50.19434
201.8174 48.09082
202.2995 49.35742
202.7817 51.35400
203.2638 54.42871
203.7459 57.96436
204.2280 61.43018
204.7101 64.79150
205.1922 68.14502
205.6744 71.48828
206.1565 74.91309
206.6386 78.79199
207.1207 84.21777
207.6028 89.78711
208.0849 93.56836
208.5671 95.32764
209.0492 95.81250
209.5313 95.47412
210.0134 94.38037
210.4955 92.36572
210.9776 88.89404
211.4598 84.52441
211.9419 80.82861
212.4240 78.84424
212.9061 75.27100
213.3882 66.39795
213.8703 54.76416
214.3525 45.13721
214.8346 41.13574
215.3167 41.00195
215.7988 38.26904
216.2809 31.39648
216.7630 24.10010
217.2451 18.26270
217.7273 13.15283
218.2094 7.336426
218.6915 0.5654300
219.1736 9.922363
219.6557 16.69238
220.1378 18.92725
220.6200 20.70703
221.1021 24.24121
221.5842 28.12305
222.0663 29.68555
222.5484 26.57227
223.0305 19.56396
223.5127 16.29932
223.9948 21.35254
224.4769 25.60059
224.9590 27.18311
225.4411 26.62012
225.9232 25.09766
226.4054 23.39941
226.8875 21.45654
227.3696 18.20752
227.8517 10.40820
228.3338 4.683105
228.8159 3.784180
229.2981 5.891113
229.7802 8.027344
230.2623 8.388672
230.7444 6.952148
231.2265 10.21936
231.7086 6.119629
232.1908 13.52295
232.6729 15.55029
233.1550 14.06201
233.6371 12.62354
234.1192 13.28467
234.6013 15.92773
235.0835 19.91895
235.5656 25.77002
236.0477 32.11279
236.5298 38.77539
237.0119 45.61182
237.4940 52.61084
237.9762 59.94434
238.4583 67.20459
238.9404 72.53662
239.4225 76.31738
239.9046 78.21826
240.3867 77.57715
240.8689 74.89893
241.3510 70.97314
241.8331 65.47461
242.3152 59.82031
242.7973 58.23438
243.2794 62.74463
243.7616 67.34131
244.2437 70.20508
244.7258 71.25342
245.2079 69.67529
245.6900 63.94287
246.1721 56.85498
246.6543 54.37939
247.1364 58.26416
247.6185 61.58496
248.1006 60.47607
248.5827 55.86475
249.0648 50.83252
249.5470 45.74707
250.0291 41.52588
250.5112 39.57178
250.9933 40.16309
251.4754 40.86914
251.9576 39.99658
252.4397 37.97021
252.9218 36.73828
253.4039 36.96631
253.8860 37.97363
254.3681 38.86768
254.8503 39.63428
255.3324 40.73047
255.8145 42.87793
256.2966 45.75244
256.7787 47.45654
257.2608 46.29395
257.7430 45.77930
258.2251 49.68896
258.7072 57.30615
259.1893 63.79199
259.6714 64.58594
260.1535 61.04785
260.6357 61.11865
261.1178 68.19336
261.5999 75.49951
262.0820 78.75977
262.5641 78.76904
263.0462 78.02148
263.5284 76.96387
264.0105 76.06494
264.4926 78.56152
264.9747 87.18945
265.4568 95.32471
265.9389 99.17725
266.4211 100.2314
266.9032 101.4233
267.3853 104.1230
267.8674 108.3374
268.3495 114.4175
268.8316 123.7080
269.3138 132.8794
269.7959 141.2153
270.2780 148.5605
270.7601 154.7095
271.2422 159.5254
271.7243 163.1113
272.2065 165.5308
272.6886 165.8418
273.1707 166.5586
273.6528 168.0552
274.1349 170.3804
274.6170 173.4395
275.0992 177.1187
275.5813 181.6523
276.0634 187.7876
276.5455 196.6733
277.0276 204.3809
277.5097 209.6191
277.9919 214.2812
278.4740 219.6108
278.9561 225.9941
279.4382 233.5991
279.9203 242.9712
280.4024 254.2012
280.8846 268.2881
281.3667 284.9663
281.8488 303.3677
282.3309 324.1050
282.8130 347.1445
283.2951 370.5508
283.7773 391.2422
284.2594 408.2129
284.7415 424.8755
285.2236 443.7896
285.7057 461.0874
286.1878 474.4189
286.6700 483.0605
287.1521 487.6992
287.6342 489.7852
288.1163 490.6865
288.5984 483.5088
289.0805 465.1938
289.5627 442.8174
290.0448 417.8960
290.5269 390.9839
291.0090 362.3721
291.4911 332.0679
291.9732 299.9561
292.4554 268.3179
292.9375 234.6416
293.4196 203.7964
293.9017 178.3677
294.3838 157.0942
294.8659 136.9146
295.3481 115.4790
295.8302 93.09814
296.3123 75.05176
296.7944 63.57959
297.2765 54.35205
297.7586 47.97461
298.2408 43.12109
298.7229 37.75732
299.2050 30.67090
299.6871 22.90869
300.1692 18.57764
300.6513 21.18555
301.1335 23.32764
301.6156 24.05420
302.0977 24.15869
302.5798 23.98291
303.0619 23.73877
303.5440 24.49219
304.0262 28.86670
304.5083 42.45801
304.9904 51.05322
305.4725 50.54199
305.9546 47.79248
306.4367 48.68115
306.9189 54.41113
307.4010 61.71289
307.8831 65.95947
308.3652 65.80273
308.8473 65.83057
309.3294 65.96582
309.8116 66.25879
310.2937 67.19189
310.7758 68.48633
311.2579 69.05469
311.7400 67.71191
312.2221 64.10303
312.7043 60.90039
313.1864 57.29492
313.6685 54.77734
314.1506 53.43359
314.6327 53.63916
315.1148 56.30029
315.5970 62.31445
316.0791 71.39209
316.5612 79.38965
317.0433 86.66309
317.5254 92.54688
318.0075 94.35986
318.4897 95.20068
318.9718 100.0532
319.4539 111.6069
319.9360 127.6689
320.4181 141.3154
320.9002 148.7891
321.3824 158.3301
321.8645 171.1509
322.3466 185.7515
322.8287 200.7837
323.3108 215.6826
323.7929 230.9336
324.2751 247.2847
324.7572 265.5981
325.2393 283.4629
325.7214 299.6323
326.2035 316.4116
326.6856 334.9512
327.1678 355.6558
327.6499 379.0415
328.1320 406.1802
328.6141 438.2500
329.0962 468.5186
329.5783 496.4224
330.0605 523.3735
330.5426 549.4497
331.0247 575.0776
331.5068 600.7485
331.9889 626.8677
332.4710 653.4116
332.9532 679.9849
333.4353 709.1724
333.9174 735.7319
334.3995 757.1719
334.8816 775.6465
335.3637 793.9409
335.8459 813.3135
336.3280 833.7954
336.8101 855.3276
337.2922 883.0503
337.7743 903.7583
338.2564 913.2915
338.7386 917.9580
339.2206 922.6685
339.7028 929.0215
340.1849 936.2480
340.6670 943.3618
341.1491 950.7515
341.6312 956.9487
342.1133 961.2505
342.5955 965.0874
343.0776 968.9199
343.5597 972.9561
344.0418 977.3491
344.5239 981.9434
345.0060 986.5918
345.4882 994.0244
345.9703 1008.637
346.4524 1021.869
346.9345 1029.276
347.4166 1033.849
347.8987 1041.485
348.3809 1056.247
348.8630 1075.910
349.3451 1090.891
349.8272 1097.235
350.3093 1105.029
350.7914 1117.336
351.2736 1131.285
351.7557 1143.462
352.2378 1152.730
352.7199 1161.492
353.2020 1174.109
353.6841 1192.214
354.1663 1209.029
354.6484 1225.116
355.1305 1239.180
355.6126 1250.177
356.0947 1257.755
356.5768 1262.061
357.0590 1262.778
357.5411 1259.916
358.0232 1256.690
358.5053 1254.792
358.9874 1250.731
359.4695 1242.681
359.9517 1231.390
360.4338 1218.686
360.9159 1205.789
361.3980 1192.346
361.8801 1176.852
362.3622 1159.230
362.8444 1139.405
363.3265 1115.894
363.8086 1090.852
364.2907 1066.623
364.7728 1043.898
365.2549 1021.275
365.7371 996.7695
366.2192 970.0859
366.7013 944.0342
367.1834 918.9473
367.6655 894.5771
368.1476 870.6367
368.6298 847.3003
369.1119 825.7295
369.5940 808.5630
370.0761 794.2583
370.5582 775.4116
371.0403 750.0552
371.5225 722.8652
372.0046 696.0923
372.4867 670.0405
372.9688 645.2534
373.4509 623.6514
373.9330 602.5850
374.4152 577.3916
374.8973 547.6108
375.3794 518.3071
375.8615 491.5068
376.3436 467.2119
376.8257 445.6924
377.3079 428.1782
377.7900 410.2568
378.2721 388.0288
378.7542 362.4238
379.2363 337.1431
379.7184 312.1016
380.2006 289.4062
380.6827 272.6631
381.1648 261.7451
381.6469 250.4990
382.1290 236.4097
382.6111 221.0063
383.0933 206.2134
383.5754 192.1562
384.0575 179.2285
384.5396 167.5513
385.0217 157.3384
385.5038 148.3594
385.9860 141.3423
386.4681 134.9883
386.9502 128.2285
387.4323 121.4336
387.9144 115.9956
388.3965 112.9585
388.8787 111.1343
389.3608 107.1187
389.8429 99.14404
390.3250 92.96289
390.8071 89.87646
391.2892 89.13623
391.7714 90.92139
392.2535 95.07422
392.7356 98.54248
393.2177 97.30615
393.6998 89.76025
394.1819 85.38770
394.6641 87.46191
395.1462 89.42578
395.6283 86.20361
396.1104 79.47168
396.5925 75.19287
397.0746 77.59277
397.5568 85.10400
398.0389 88.84863
398.5210 86.91748
399.0031 83.35449
399.4852 77.38428
399.9673 70.53027
400.4495 64.08838
400.9316 58.56836
401.4137 54.01904
401.8958 50.79395
402.3779 50.09229
402.8600 47.38135
403.3422 41.02930
403.8243 34.35547
404.3064 28.41602
404.7885 23.55908
405.2706 20.20703
405.7527 19.04346
406.2349 19.61621
406.7170 18.50879
407.1991 14.27197
407.6812 10.38086
408.1633 7.796387
408.6454 5.951172
409.1276 4.070801
409.6097 1.851563
410.0918 8.2030997E-02
410.5739 0.2163090
411.0560 2.207031
411.5381 2.194336
412.0203 4.549805
412.5024 10.73975
412.9845 11.41016
413.4666 7.258789
413.9487 2.913086
414.4308 1.156738
414.9130 1.645508
415.3951 3.640137
415.8772 8.029785
416.3593 11.89062
416.8414 12.63672
417.3235 12.04688
417.8057 12.70850
418.2878 15.92725
418.7699 19.51025
419.2520 21.42090
419.7341 21.67725
420.2162 20.86328
420.6984 18.90674
421.1805 16.24805
421.6626 12.73584
422.1447 8.331543
422.6268 6.372070
423.1089 10.43994
423.5911 16.47510
424.0732 18.28809
424.5553 15.12695
425.0374 11.79834
425.5195 12.58789
426.0016 16.58203
426.4838 16.99512
426.9659 10.92676
427.4480 4.481445
427.9301 0.2255860
428.4122 2.455566
428.8943 4.546387
429.3765 6.308594
429.8586 8.384277
430.3407 11.89990
430.8228 17.27148
431.3049 24.07129
431.7870 34.69922
432.2692 44.29639
432.7513 48.54688
433.2334 48.34424
433.7155 48.62354
434.1976 53.38184
434.6797 62.30420
435.1619 71.18018
435.6440 79.40723
436.1261 88.38037
436.6082 98.49219
437.0903 109.2949
437.5724 120.6328
438.0546 132.3496
438.5367 143.7461
439.0188 153.6167
439.5009 161.4893
439.9830 169.2124
440.4651 172.5933
440.9473 179.7285
441.4294 196.3413
441.9115 220.2002
442.3936 244.7158
442.8757 265.5430
443.3578 283.7271
443.8400 302.5889
444.3221 323.4150
444.8042 341.9756
445.2863 354.6890
445.7684 365.5698
446.2505 378.6289
446.7327 394.8784
447.2148 410.4473
447.6969 422.4893
448.1790 431.0386
448.6611 436.6426
449.1432 440.2983
449.6254 439.0688
450.1075 428.2861
450.5896 410.3462
451.0717 391.7251
451.5538 374.7754
452.0359 357.4507
452.5181 337.3491
453.0002 314.8154
453.4823 292.6621
453.9644 272.3569
454.4465 252.9482
454.9286 231.5645
455.4108 206.3208
455.8929 185.0205
456.3750 171.5596
456.8571 161.7988
457.3392 151.0254
457.8214 138.6782
458.3035 127.1895
458.7856 118.9058
459.2677 113.8574
459.7498 107.4141
460.2319 98.55859
460.7141 89.71338
461.1962 80.68164
461.6783 72.34229
462.1604 66.11084
462.6425 62.48389
463.1246 60.51123
463.6068 58.98047
464.0889 59.24023
464.5710 56.34180
465.0531 47.37598
465.5352 38.18799
466.0173 30.71240
466.4995 25.30615
466.9816 22.04639
467.4637 21.12402
467.9458 22.20654
468.4279 24.81982
468.9100 30.48438
469.3922 33.80859
469.8743 30.56543
470.3564 25.56934
470.8385 23.10596
471.3206 23.97363
471.8027 25.51221
472.2849 25.34375
472.7670 23.90381
473.2491 23.45117
473.7312 24.60645
474.2133 25.01172
474.6954 21.94043
475.1776 17.06787
475.6597 14.25195
476.1418 15.36816
476.6239 16.82227
477.1060 16.10596
477.5881 13.90381
478.0703 11.77881
478.5524 10.14258
479.0345 9.579102
479.5166 11.27930
479.9987 15.99072
480.4808 19.69727
480.9630 22.89697
481.4451 23.79883
481.9272 20.06982
482.4093 13.30615
482.8914 7.598145
483.3735 5.166992
483.8557 5.130371
484.3378 5.166992
484.8199 5.964355
485.3020 6.684082
485.7841 6.793945
486.2662 6.832520
486.7484 7.728027
487.2305 9.209473
487.7126 9.552246
488.1947 6.348145
488.6768 2.2461001E-02
489.1589 1.637207
489.6411 4.715332
490.1232 10.49658
490.6053 12.81738
491.0874 13.30029
491.5695 13.88135
492.0516 15.16602
492.5338 15.93115
493.0159 14.36084
493.4980 10.80762
493.9801 8.474121
494.4622 8.131348
494.9443 8.566895
495.4265 8.934570
495.9086 9.308594
496.3907 9.921387
496.8728 11.18457
497.3549 12.40137
497.8370 12.90430
498.3192 12.84326
498.8013 12.72852
499.2834 12.67529
499.7655 12.85303
500.2476 13.66504
500.7297 15.45947
501.2119 16.51855
501.6940 15.42432
502.1761 14.61426
502.6582 16.19580
503.1403 19.67188
503.6224 22.95117
504.1045 24.65820
504.5866 25.45801
505.0688 27.97363
505.5509 35.90234
506.0330 39.54736
506.5151 34.77881
506.9972 28.63037
507.4793 25.84180
507.9615 26.94336
508.4436 30.29297
508.9257 35.39502
509.4078 41.60742
509.8899 44.33350
510.3720 41.30566
510.8542 39.75781
511.3363 44.48340
511.8184 50.90430
512.3005 54.40332
512.7827 53.99512
513.2648 52.42969
513.7469 50.51758
514.2290 49.05371
514.7111 51.12207
515.1932 57.88086
515.6754 64.44580
516.1575 66.62012
516.6396 65.37158
517.1217 65.68066
517.6038 70.06396
518.0859 73.30664
518.5681 71.64209
519.0502 67.65039
519.5323 65.54297
520.0144 66.50830
520.4965 69.65234
520.9786 74.21582
521.4608 80.72314
521.9429 85.34424
522.4250 86.38721
522.9071 87.74023
523.3892 90.93164
523.8713 95.21924
524.3535 99.65967
524.8356 103.8730
525.3177 107.4805
525.7998 109.5288
526.2819 109.5293
526.7640 110.1978
527.2462 111.9189
527.7283 114.2134
528.2104 116.7910
528.6925 119.6787
529.1746 123.3560
529.6567 128.8350
530.1389 133.9072
530.6210 134.7598
531.1031 131.6489
531.5852 129.8877
532.0673 131.4902
532.5494 134.2510
533.0316 135.0747
533.5137 134.0947
533.9958 134.6504
534.4779 139.3018
534.9600 144.1187
535.4421 145.5840
535.9243 144.4849
536.4064 144.0933
536.8885 146.1309
537.3706 149.2622
537.8527 150.5996
538.3348 148.6963
538.8170 147.7690
539.2991 147.5884
539.7812 147.7520
540.2633 148.7598
540.7454 150.1362
541.2275 150.7622
541.7097 150.0210
542.1918 148.5151
542.6739 147.7271
543.1560 148.1270
543.6381 147.7656
544.1202 145.1836
544.6024 141.9600
545.0845 139.0083
545.5666 136.6104
546.0487 134.9932
546.5308 134.7109
547.0129 134.6431
547.4951 133.5098
547.9772 131.2524
548.4593 128.1650
548.9414 124.3853
549.4235 119.8535
549.9056 113.6719
550.3878 104.9517
550.8699 99.50342
551.3520 100.4038
551.8341 103.8179
552.3162 107.5559
552.7983 110.4800
553.2805 110.7988
553.7626 107.5059
554.2447 101.8760
554.7268 97.44238
555.2089 94.53784
555.6910 92.29443
556.1732 91.59204
556.6553 90.63867
557.1374 87.78711
557.6195 83.46729
558.1016 80.20337
558.5837 80.02319
559.0659 81.09766
559.5480 78.41211
560.0301 71.06763
560.5122 65.61206
560.9943 65.03687
561.4764 65.95947
561.9586 65.38794
562.4407 63.39941
562.9228 60.39941
563.4049 55.04639
563.8870 49.48511
564.3691 46.43091
564.8513 45.64648
565.3334 45.09888
565.8155 43.81396
566.2976 42.38403
566.7797 41.99243
567.2618 43.93896
567.7440 43.76343
568.2261 39.35376
568.7082 34.80151
569.1903 31.98926
569.6724 31.01123
570.1545 31.83862
570.6367 34.59839
571.1188 37.85205
571.6009 38.37427
572.0830 35.43188
572.5651 32.38184
573.0472 28.11621
573.5294 25.31592
574.0115 26.77637
574.4936 30.87012
574.9757 33.08643
575.4578 30.87256
575.9399 26.94702
576.4221 24.21289
576.9042 22.51807
577.3863 20.81836
577.8684 18.68408
578.3505 16.95264
578.8326 16.88086
579.3148 18.64648
579.7969 19.57178
580.2790 18.87695
580.7611 18.11572
581.2432 19.14819
581.7253 20.34106
582.2075 18.03833
582.6896 11.24072
583.1717 3.956787
583.6538 2.196533
584.1359 7.032959
584.6180 9.642578
585.1002 7.200928
585.5823 5.867676
586.0643 9.596191
586.5464 14.69629
587.0286 15.50830
587.5107 10.10205
587.9928 4.364990
588.4749 4.904053
588.9570 9.931152
589.4391 11.71777
589.9213 8.462646
590.4034 6.793701
590.8855 13.41040
591.3676 24.84521
591.8497 28.24561
592.3318 19.07568
592.8140 9.824219
593.2961 4.179199
593.7782 0.6220700
594.2603 2.069092
594.7424 4.260986
595.2245 6.573730
595.7067 9.688477
596.1888 13.07007
596.6709 13.53516
597.1530 8.812500
597.6351 5.014404
598.1172 2.503662
598.5994 1.366699
599.0815 2.076416
599.5636 4.355469
600.0457 7.114258
600.5278 10.55762
601.0099 13.44336
601.4921 12.62573
601.9742 8.058350
602.4563 4.562744
602.9384 4.279785
603.4205 5.192383
603.9026 4.386719
604.3848 1.849854
604.8669 0.4079590
605.3490 2.485352
605.8311 3.847412
606.3132 3.899170
606.7953 3.010498
607.2775 2.042480
607.7596 1.341797
608.2417 0.3801270
608.7238 2.052490
609.2059 6.889648
609.6880 8.506348
610.1702 5.100830
610.6523 9.831479
611.1344 6.569092
611.6165 13.39087
612.0986 17.28687
612.5807 17.44092
613.0629 14.90625
613.5450 8.424316
614.0271 1.9286999E-02
614.5092 3.209717
614.9913 0.2053220
615.4734 4.109619
615.9556 4.696533
616.4377 2.758789
616.9198 1.070068
617.4019 0.6728520
617.8840 1.647949
618.3661 0.5690920
618.8483 0.5554200
619.3304 0.7553710
619.8125 3.939697
620.2946 6.069092
620.7767 5.079590
621.2589 2.195068
621.7410 1.261963
622.2231 3.410156
622.7052 4.121826
623.1873 1.669189
623.6694 1.380127
624.1516 4.159424
624.6337 6.363037
625.1158 7.198486
625.5979 5.406738
626.0800 3.481445
626.5621 4.541260
627.0443 7.655273
627.5264 9.358154
628.0085 8.656738
628.4906 7.732666
628.9727 9.031250
629.4548 12.55664
629.9370 13.72729
630.4191 10.23633
630.9012 7.669678
631.3833 7.458496
631.8654 8.644775
632.3475 10.62891
632.8297 13.03125
633.3118 15.08325
633.7939 16.13770
634.2760 16.30469
634.7581 15.54712
635.2402 13.15942
635.7224 12.77710
636.2045 16.82373
636.6866 22.29834
637.1687 25.85889
637.6508 27.60474
638.1329 29.87134
638.6151 34.81348
639.0972 39.34106
639.5793 40.58032
640.0614 39.28760
640.5435 37.35303
641.0256 35.40088
641.5078 33.61841
641.9899 32.39282
642.4720 31.61206
642.9541 31.33130
643.4362 31.36987
643.9183 32.22705
644.4005 33.81689
644.8826 36.33813
645.3647 40.74609
645.8468 46.95020
646.3289 52.21216
646.8110 53.34326
647.2932 51.98291
647.7753 52.58105
648.2574 55.35205
648.7395 57.45776
649.2216 57.31470
649.7037 56.10547
650.1859 55.61206
650.6680 55.38794
651.1501 57.60571
651.6322 64.24316
652.1143 71.41064
652.5964 77.71069
653.0786 82.72827
653.5607 85.75854
654.0428 86.60132
654.5249 86.59009
655.0070 87.56445
655.4891 89.48535
655.9713 91.37671
656.4534 92.38867
656.9355 94.64575
657.4176 99.64941
657.8997 106.1440
658.3818 113.2588
658.8640 121.2268
659.3461 127.9656
659.8282 132.2231
660.3103 135.1724
660.7924 137.0161
661.2745 138.3752
661.7567 141.8550
662.2388 148.8901
662.7209 158.0986
663.2030 167.1868
663.6851 177.1147
664.1672 183.7246
664.6494 182.2427
665.1315 182.6179
665.6136 188.9814
666.0957 198.9209
666.5778 208.9709
667.0599 218.0571
667.5421 226.9866
668.0242 237.7598
668.5063 248.9055
668.9884 255.8796
669.4705 258.3152
669.9526 260.5981
670.4348 264.4912
670.9169 270.4182
671.3990 279.6648
671.8811 294.7515
672.3632 306.8545
672.8453 313.3535
673.3275 319.5784
673.8096 328.4995
674.2917 339.1758
674.7738 349.8892
675.2559 359.8904
675.7380 369.2490
676.2202 377.9558
676.7023 386.0635
677.1844 393.7261
677.6665 400.1201
678.1486 408.7935
678.6307 422.8328
679.1129 439.9233
679.5950 454.9175
680.0771 466.8491
680.5592 480.9849
681.0413 501.1833
681.5234 521.8433
682.0056 536.6499
682.4877 548.5063
682.9698 565.1509
683.4519 589.7959
683.9340 618.3452
684.4161 644.7400
684.8983 668.4900
685.3804 694.6006
685.8625 722.6648
686.3446 753.6692
686.8267 788.5154
687.3088 826.1250
687.7910 865.9312
688.2731 907.8821
688.7552 950.9678
689.2373 993.3767
689.7194 1037.815
690.2015 1086.125
690.6837 1138.598
691.1658 1195.779
691.6479 1258.065
692.1300 1323.507
692.6121 1390.155
693.0942 1457.438
693.5764 1527.441
694.0585 1600.607
694.5406 1675.592
695.0227 1751.800
695.5048 1829.467
695.9869 1908.860
696.4691 1989.966
696.9512 2074.613
697.4333 2163.766
697.9154 2257.399
698.3975 2357.045
698.8796 2461.948
699.3618 2569.228
699.8439 2677.065
700.3260 2788.023
700.8081 2905.379
701.2902 3030.169
701.7723 3151.461
702.2545 3268.157
702.7366 3381.845
703.2187 3492.927
703.7008 3600.531
704.1829 3709.466
704.6650 3816.700
705.1472 3907.343
705.6293 3970.290
706.1114 4010.489
706.5935 4035.887
707.0756 4045.667
707.5577 4034.713
708.0399 4001.677
708.5220 3946.020
709.0041 3865.716
709.4862 3760.589
709.9683 3642.414
710.4504 3507.759
710.9326 3364.547
711.4147 3209.382
711.8968 3049.119
712.3789 2888.810
712.8610 2729.160
713.3431 2571.566
713.8253 2414.533
714.3074 2263.083
714.7895 2123.588
715.2716 1996.216
715.7537 1877.067
716.2358 1766.753
716.7180 1663.116
717.2001 1564.215
717.6822 1470.703
718.1643 1386.337
718.6464 1315.637
719.1285 1247.899
719.6107 1182.033
720.0928 1118.861
720.5749 1058.396
721.0570 1000.968
721.5391 948.1318
722.0212 900.7229
722.5034 856.3071
722.9855 811.3721
723.4676 766.2688
723.9497 725.5283
724.4318 689.9775
724.9139 655.6973
725.3961 620.1653
725.8782 584.4675
726.3603 553.1128
726.8424 527.9692
727.3245 502.6853
727.8066 476.8389
728.2888 450.7302
728.7709 422.8469
729.2530 395.3782
729.7351 372.2996
730.2172 354.9590
730.6993 340.8235
731.1815 328.8984
731.6636 318.0884
732.1457 303.3833
732.6278 284.2654
733.1099 266.8101
733.5920 253.8096
734.0742 243.2341
734.5563 232.2629
735.0384 220.9150
735.5205 208.7600
736.0026 192.8989
736.4847 179.6389
736.9669 172.7620
737.4490 168.8672
737.9311 164.2100
738.4132 158.0215
738.8953 151.2332
739.3774 144.3506
739.8596 137.4468
740.3417 130.4683
740.8238 123.4426
741.3059 117.0735
741.7880 111.4717
742.2701 107.0198
742.7523 104.7974
743.2344 104.4492
743.7165 100.7605
744.1986 89.81396
744.6807 81.22241
745.1628 78.20117
745.6450 76.26221
746.1271 71.59717
746.6092 64.98145
747.0913 59.50317
747.5734 56.72559
748.0555 55.54297
748.5377 55.96753
749.0198 57.00122
749.5019 54.26489
749.9840 47.08179
750.4661 39.57056
750.9482 33.98950
751.4304 29.98853
751.9125 26.68433
752.3946 24.43066
752.8767 22.12891
753.3588 19.77539
753.8409 17.36963
754.3231 14.90063
754.8052 12.36841
755.2873 9.531494
755.7694 6.370117
756.2515 3.867920
756.7336 3.474854
757.2158 3.832031
757.6979 2.279541
758.1800 0.8276370
758.6621 2.959229
759.1442 3.177490
759.6263 2.807617
760.1085 3.454102
760.5906 5.106934
761.0727 6.232178
761.5548 6.424805
762.0369 6.649902
762.5190 7.178223
763.0012 7.658203
763.4833 7.726318
763.9654 7.488037
764.4475 7.375244
764.9296 7.373535
765.4117 7.875977
765.8939 10.03638
766.3760 12.67114
766.8581 13.15894
767.3402 11.44556
767.8223 10.12354
768.3044 10.97754
768.7866 12.78979
769.2687 12.09814
769.7508 7.606201
770.2329 5.504150
770.7150 7.418701
771.1971 9.728271
771.6793 11.47021
772.1614 12.32837
772.6435 11.27319
773.1256 7.878418
773.6077 5.818115
774.0898 8.439697
774.5720 11.20190
775.0541 9.637939
775.5362 5.514160
776.0183 2.791748
776.5004 2.545654
776.9825 2.703857
777.4647 0.8549800
777.9468 1.477295
778.4289 2.388672
778.9110 1.262451
779.3931 3.517090
779.8752 2.840820
780.3574 0.8315430
780.8395 2.001953
781.3216 5.181641
781.8037 6.074707
782.2858 2.149170
782.7679 0.5249020
783.2501 0.1015630
783.7322 1.828613
784.2143 4.671631
784.6964 7.813721
785.1785 10.16333
785.6606 11.19556
786.1428 11.77124
786.6249 12.71411
787.1070 14.08105
787.5891 16.20752
788.0712 19.10913
788.5533 22.39478
789.0355 25.92310
789.5176 29.68188
789.9997 33.89258
790.4818 38.97363
790.9639 41.85693
791.4460 39.67114
791.9282 39.06323
792.4103 42.55737
792.8924 47.53638
793.3745 51.79883
793.8566 55.15967
794.3387 58.44946
794.8209 62.13721
795.3030 65.82861
795.7851 69.28955
796.2672 72.44556
796.7493 74.99756
797.2314 76.95410
797.7136 78.61572
798.1957 80.04272
798.6778 81.79614
799.1599 85.68433
799.6420 92.77051
800.1241 97.22534
800.6063 96.50098
801.0884 96.87817
801.5705 102.9067
802.0526 110.7959
802.5347 115.4062
803.0168 116.0852
803.4990 118.5168
803.9811 126.2988
804.4632 134.2458
804.9453 137.7439
805.4274 139.9238
805.9095 146.1382
806.3917 156.8835
806.8738 168.1846
807.3559 177.1541
807.8380 184.2114
808.3201 189.4001
808.8022 192.9119
809.2844 199.0828
809.7665 209.4182
810.2486 218.7607
810.7307 222.6067
811.2128 223.3770
811.6949 228.6714
812.1771 242.1282
812.6592 252.6501
813.1413 257.4500
813.6234 262.3896
814.1055 271.2903
814.5876 281.1877
815.0698 286.3689
815.5519 286.2061
816.0340 289.3696
816.5161 303.7129
816.9982 322.5225
817.4803 339.5522
817.9625 354.2358
818.4446 364.0002
818.9267 368.8572
819.4088 375.1902
819.8909 388.7012
820.3730 407.1196
820.8552 422.2983
821.3373 433.5820
821.8194 444.8086
822.3015 455.7183
822.7836 467.7747
823.2657 482.4949
823.7479 498.6370
824.2300 513.2881
824.7121 525.5603
825.1942 540.3865
825.6763 561.8669
826.1584 582.6143
826.6406 595.9824
827.1227 607.2085
827.6048 624.2988
828.0869 648.3889
828.5690 674.9255
829.0511 701.2107
829.5333 727.1208
830.0154 751.7393
830.4975 775.7183
830.9796 802.2532
831.4617 831.9001
831.9438 861.4810
832.4260 888.6392
832.9081 914.8313
833.3902 944.0972
833.8723 976.3682
834.3544 1011.386
834.8365 1049.540
835.3187 1089.776
835.8008 1131.343
836.2829 1174.609
836.7650 1219.883
837.2471 1267.183
837.7292 1315.529
838.2114 1364.619
838.6935 1415.044
839.1756 1466.228
839.6577 1519.338
840.1398 1577.183
840.6219 1639.153
841.1041 1700.621
841.5862 1758.711
842.0683 1814.162
842.5504 1867.593
843.0325 1919.219
843.5146 1970.212
843.9968 2020.299
844.4789 2070.860
844.9610 2121.758
845.4431 2174.592
845.9252 2231.690
846.4073 2292.555
846.8895 2361.266
847.3716 2440.490
847.8537 2523.661
848.3358 2608.174
848.8179 2697.694
849.3000 2795.211
849.7822 2900.667
850.2643 3013.180
850.7464 3136.687
851.2285 3261.268
851.7106 3390.395
852.1927 3511.623
852.6749 3617.540
853.1570 3702.844
853.6391 3756.398
854.1212 3772.909
854.6033 3758.208
855.0854 3714.501
855.5676 3645.427
856.0497 3565.069
856.5318 3473.000
857.0139 3380.982
857.4960 3290.563
857.9781 3210.085
858.4603 3148.970
858.9424 3106.429
859.4245 3071.668
859.9066 3041.872
860.3887 3024.937
860.8708 3023.094
861.3530 3031.997
861.8351 3052.287
862.3172 3080.931
862.7993 3112.487
863.2814 3145.773
863.7635 3184.659
864.2457 3231.529
864.7278 3284.218
865.2099 3343.415
865.6920 3406.230
866.1741 3474.377
866.6563 3543.650
867.1384 3593.765
867.6205 3614.143
868.1026 3596.453
868.5847 3522.309
869.0668 3394.250
869.5490 3224.588
870.0311 3014.250
870.5132 2777.286
870.9953 2514.471
871.4774 2241.118
871.9595 1986.376
872.4417 1748.766
872.9238 1534.954
873.4059 1343.454
873.8880 1176.519
874.3701 1041.845
874.8522 927.6345
875.3344 826.7444
875.8165 738.5632
876.2986 661.2495
876.7807 595.4614
877.2628 539.5146
877.7449 497.1814
878.2271 461.0850
878.7092 425.3806
879.1913 390.9485
879.6734 361.2017
880.1555 337.4250
880.6376 317.6763
881.1198 300.9490
881.6019 286.9890
882.0840 275.2974
882.5661 266.0740
883.0482 260.3252
883.5303 258.1838
884.0125 257.9004
884.4946 258.2051
884.9767 258.9685
885.4588 259.9729
885.9409 261.4429
886.4230 262.3167
886.9052 263.3818
887.3873 261.5859
887.8694 255.3928
888.3515 245.5930
888.8336 232.9255
889.3157 216.7759
889.7979 200.6577
890.2800 185.3975
890.7621 169.3818
891.2442 149.9319
891.7263 131.5046
892.2084 118.7800
892.6906 110.3289
893.1727 101.5105
893.6548 90.88623
894.1369 79.55200
894.6190 66.63940
895.1011 54.82007
895.5833 48.23218
896.0654 45.27783
896.5475 41.33154
897.0296 35.13013
897.5117 29.59375
897.9938 28.28149
898.4760 29.11157
898.9581 26.78687
899.4402 21.66089
899.9223 18.81030
900.4044 19.36719
900.8865 19.54907
901.3687 16.84521
901.8508 12.24780
902.3329 8.191162
902.8150 4.961182
903.2971 1.297363
903.7792 3.804932
904.2614 7.532471
904.7435 7.716309
905.2256 7.120361
905.7077 8.819580
906.1898 12.30566
906.6719 14.10645
907.1541 12.89258
907.6362 10.62134
908.1183 6.226318
908.6004 2.371582
909.0825 1.346924
909.5646 2.242432
910.0468 3.685547
910.5289 5.106934
911.0110 5.418457
911.4931 2.429199
911.9752 0.8969730
912.4573 0.5476070
912.9395 -0.3616486
913.4216 -0.1316068
913.9037 0.9604490
914.3858 1.601563
914.8679 4.741699
915.3500 7.442627
915.8321 7.182373
916.3142 4.599365
916.7963 4.998047
917.2784 8.678467
917.7606 12.62305
918.2427 15.88062
918.7248 18.79810
919.2069 21.96338
919.6890 25.09570
920.1711 25.92090
920.6533 23.02075
921.1354 21.24097
921.6175 21.01636
922.0996 22.02979
922.5817 25.06592
923.0638 28.72339
923.5460 31.39722
924.0281 33.21460
924.5102 32.83252
924.9923 27.62158
925.4744 23.22900
925.9565 21.95630
926.4387 22.14673
926.9208 22.46606
927.4029 22.78931
927.8850 23.72119
928.3671 25.82690
928.8492 26.72583
929.3314 23.32812
929.8135 19.02930
930.2956 18.44873
930.7777 19.77661
931.2598 18.10669
931.7419 12.70630
932.2241 7.786865
932.7062 6.816406
933.1883 7.798584
933.6704 6.898193
934.1525 4.686279
934.6346 4.074463
935.1168 5.291260
935.5989 6.182373
936.0810 5.750000
936.5631 4.585205
937.0452 3.379639
937.5273 2.168457
938.0095 1.597656
938.4916 2.061279
938.9737 1.327637
939.4558 1.934082
939.9379 1.382620
940.4200 0.9355699
940.9022 1.222168
941.3843 0.2204590
941.8664 1.596924
942.3485 2.279297
942.8306 1.510986
943.3127 1.060303
943.7949 2.304199
944.2770 3.378906
944.7591 1.294434
945.2412 2.724121
945.7233 2.916504
946.2054 5.510742
946.6876 3.643777
947.1697 5.340332
947.6518 1.349609
948.1339 1.256104
948.6160 2.399658
949.0981 4.090332
949.5803 2.630371
950.0624 0.1245120
950.5445 4.413330
951.0266 7.507080
951.5087 5.346436
951.9908 0.7766110
952.4730 1.576904
952.9551 1.599365
953.4372 1.140869
953.9193 0.9958500
954.4014 0.4064940
954.8835 2.193115
955.3657 1.312256
955.8478 5.117188
956.3299 1.612793
956.8120 1.0498000E-02
957.2941 1.310059
957.7762 2.668701
958.2584 2.074951
958.7405 1.032715
959.2226 3.031494
959.7047 8.411133
960.1868 11.18921
960.6689 10.98877
961.1511 9.567871
961.6332 7.001953
962.1153 3.985107
962.5974 0.8146970
963.0795 2.010986
963.5616 2.334473
964.0438 2.217529
964.5259 4.065430
965.0080 1.352051
965.4901 1.302490
965.9722 2.823730
966.4543 3.135010
966.9365 1.847168
967.4186 0.8522950
967.9007 3.503174
968.3828 7.390137
968.8649 9.009766
969.3470 5.413330
969.8292 1.640137
970.3113 1.001221
970.7934 2.255615
971.2755 3.332275
971.7576 3.890625
972.2397 4.627197
972.7219 5.932861
973.2040 7.426758
973.6861 9.095703
974.1682 10.65210
974.6503 12.11182
975.1324 13.11035
975.6146 12.46411
976.0967 9.816162
976.5788 7.467773
977.0609 7.590820
977.5430 9.040039
978.0251 11.28735
978.5073 13.30200
978.9894 11.63794
979.4715 6.714844
979.9536 3.603760
980.4357 5.098145
980.9178 8.944824
981.4000 12.17261
981.8821 15.07300
982.3642 19.49878
982.8463 25.00586
983.3284 26.89014
983.8105 23.96094
984.2927 21.05811
984.7748 21.86328
985.2569 24.82324
985.7390 26.82251
986.2211 27.93848
986.7032 26.06567
987.1854 20.23682
987.6675 16.96436
988.1496 18.63794
988.6317 22.57349
989.1138 27.00317
989.5959 31.18311
990.0781 31.43262
990.5602 25.13721
991.0423 22.61816
991.5244 25.68701
992.0065 29.52197
992.4886 33.25195
992.9708 35.99072
993.4529 36.21387
993.9350 34.19092
994.4171 33.30859
994.8992 35.83008
995.3813 35.94702
995.8635 31.69141
996.3456 27.05273
996.8277 23.01685
997.3098 19.92261
997.7919 18.79199
998.2740 19.72290
998.7562 20.23291
999.2383 19.49731
999.7204 18.42651
1000.203 16.70874
1000.685 15.56201
1001.167 17.42847
1001.649 19.53076
1002.131 16.04492
1002.613 6.798584
1003.095 1.854492
1003.577 10.06445
1004.059 17.21851
1004.542 13.23730
1005.024 7.461182
1005.506 9.120117
1005.988 15.64941
1006.470 20.74390
1006.952 22.69287
1007.434 22.92407
1007.916 20.57910
1008.398 18.75806
1008.881 21.87134
1009.363 26.27344
1009.845 25.51855
1010.327 20.80786
1010.809 18.41528
1011.291 20.65479
1011.773 23.22168
1012.255 21.96802
1012.738 18.93091
1013.220 14.93262
1013.702 12.08545
1014.184 17.03467
1014.666 28.54614
1015.148 36.63306
1015.630 36.32935
1016.112 31.38989
1016.594 24.70312
1017.077 17.87256
1017.559 15.94775
1018.041 17.68652
1018.523 16.62378
1019.005 12.01953
1019.487 9.442627
1019.969 12.15503
1020.451 16.50122
1020.934 16.94946
1021.416 14.34521
1021.898 12.71680
1022.380 11.88257
1022.862 12.40723
1023.344 14.49976
1023.826 15.49780
1024.308 13.56812
1024.791 10.62109
1025.273 10.05249
1025.755 11.70337
1026.237 12.93774
1026.719 13.70386
1027.201 13.83105
1027.683 13.12134
1028.165 12.11353
1028.647 10.98047
1029.130 10.26904
1029.612 11.43701
1030.094 14.76782
1030.576 15.91357
1031.058 14.01416
1031.540 13.02246
1032.022 13.52954
1032.504 15.13721
1032.986 18.09180
1033.469 21.31982
1033.951 22.23901
1034.433 20.34814
1034.915 19.18140
1035.397 18.94653
1035.879 19.11279
1036.361 19.89209
1036.843 20.53052
1037.326 20.85059
1037.808 20.43262
1038.290 18.16333
1038.772 13.26782
1039.254 10.14355
1039.736 9.205566
1040.218 9.397217
1040.700 10.99731
1041.182 13.21851
1041.665 17.07080
1042.147 20.74121
1042.629 19.12646
1043.111 10.20093
1043.593 5.680908
1044.075 9.119385
1044.557 12.48364
1045.039 15.34106
1045.521 16.34277
1046.004 12.90991
1046.486 7.462402
1046.968 5.349365
1047.450 7.650391
1047.932 9.436279
1048.414 9.337891
1048.896 9.505371
1049.378 11.17871
1049.861 12.84497
1050.343 13.32031
1050.825 13.02075
1051.307 12.55566
1051.789 11.89648
1052.271 11.96973
1052.753 13.30762
1053.235 14.90308
1053.718 16.32690
1054.200 17.96411
1054.682 20.78320
1055.164 23.74219
1055.646 24.76978
1056.128 23.47144
1056.610 21.95825
1057.092 20.65601
1057.574 19.36304
1058.057 16.84692
1058.539 15.40137
1059.021 18.54932
1059.503 23.35083
1059.985 23.90771
1060.467 19.27075
1060.949 15.49683
1061.431 15.24561
1061.913 16.08545
1062.396 17.95508
1062.878 19.45166
1063.360 19.55566
1063.842 18.44043
1064.324 16.15063
1064.806 12.80933
1065.288 9.796387
1065.770 7.043701
1066.253 5.556641
1066.735 7.553467
1067.217 9.228027
1067.699 5.922607
1068.181 1.146240
1068.663 1.374512
1069.145 6.967041
1069.627 11.28271
1070.109 11.79980
1070.592 10.65747
1071.074 6.914307
1071.556 3.773193
1072.038 4.947266
1072.520 7.582764
1073.002 6.384033
1073.484 1.645020
1073.966 6.4940996E-02
1074.448 5.356201
1074.931 10.30200
1075.413 10.65430
1075.895 9.745361
1076.377 9.589111
1076.859 9.823975
1077.341 10.02710
1077.823 10.00171
1078.305 9.234131
1078.788 7.246094
1079.270 5.406494
1079.752 3.555908
1080.234 2.969971
1080.716 6.825684
1081.198 11.00952
1081.680 9.505127
1082.162 3.714600
1082.644 0.1071780
1083.127 0.3837890
1083.609 1.436768
1084.091 1.490967
1084.573 1.464355
1085.055 2.093506
1085.537 2.805664
1086.019 3.034424
1086.501 2.826660
1086.984 2.550537
1087.466 2.345947
1087.948 1.661621
1088.430 1.448242
1088.912 2.992676
1089.394 0.6916500
1089.876 5.505127
1090.358 7.852539
1090.840 8.159180
1091.323 8.173828
1091.805 8.261230
1092.287 7.472656
1092.769 3.496582
1093.251 1.185791
1093.733 3.641846
1094.215 7.485840
1094.697 11.61963
1095.179 14.54199
1095.662 13.45581
1096.144 8.397461
1096.626 4.360840
1097.108 3.702148
1097.590 3.002197
1098.072 0.7285160
1098.554 1.448975
1099.036 3.383057
1099.519 4.027588
1100.001 0.6633300
1100.483 5.691895
1100.965 8.245850
1101.447 2.759766
1101.929 0.6428220
1102.411 2.934814
1102.893 6.383301
1103.375 6.445068
1103.858 4.631592
1104.340 1.649170
1104.822 1.690186
1105.304 3.049072
1105.786 1.410645
1106.268 0.3203130
1106.750 2.036865
1107.232 2.239502
1107.714 2.266602
1108.197 4.121999
1108.679 4.793596
1109.161 7.596924
1109.643 8.385986
1110.125 11.10229
1110.607 14.83203
1111.089 22.64844
1111.571 26.85352
1112.054 23.16309
1112.536 18.53149
1113.018 16.97534
1113.500 16.88208
1113.982 15.51538
1114.464 12.82471
1114.946 11.21387
1115.428 11.74243
1115.911 11.60693
1116.393 10.22437
1116.875 8.857422
1117.357 8.777344
1117.839 8.168945
1118.321 3.661377
1118.803 3.312256
1119.285 3.962646
1119.767 6.537109
1120.250 4.516633
1120.732 6.714600
1121.214 2.409912
1121.696 9.4727002E-02
1122.178 7.0312999E-02
1122.660 2.964355
1123.142 7.497559
1123.624 8.987549
1124.106 7.054199
1124.589 4.615479
1125.071 0.6474610
1125.553 6.3479999E-03
1126.035 4.513184
1126.517 9.919434
1126.999 14.35181
1127.481 16.77588
1127.963 15.06470
1128.446 9.728516
1128.928 6.907959
1129.410 6.824219
1129.892 7.483643
1130.374 8.935791
1130.856 8.746826
1131.338 5.599854
1131.820 2.437012
1132.302 2.663330
1132.785 4.894043
1133.267 4.173096
1133.749 5.419922
1134.231 7.370117
1134.713 6.542969
1135.195 9.909912
1135.677 10.12427
1136.159 7.966797
1136.641 3.612061
1137.124 0.5122070
1137.606 1.042480
1138.088 1.623047
1138.570 2.288330
1139.052 0.4167480
1139.534 1.403076
1140.016 2.899170
1140.498 8.211182
1140.981 12.47900
1141.463 14.04077
1141.945 9.038818
1142.427 2.823730
1142.909 7.478027
1143.391 16.91724
1143.873 16.61328
1144.355 8.658447
1144.838 4.019531
1145.320 5.448242
1145.802 7.468994
1146.284 6.532471
1146.766 4.344727
1147.248 1.289795
1147.730 0.5625000
1148.212 2.907471
1148.694 8.751953
1149.177 11.64014
1149.659 11.50806
1150.141 11.63745
1150.623 13.29175
1151.105 15.14819
1151.587 16.83618
1152.069 17.96509
1152.551 19.00903
1153.033 18.70068
1153.516 13.23828
1153.998 6.335938
1154.480 6.668945
1154.962 15.26294
1155.444 20.88354
1155.926 17.30151
1156.408 13.84375
1156.890 13.43701
1157.373 13.75317
1157.855 14.28345
1158.337 14.40405
1158.819 12.94385
1159.301 10.47241
1159.783 9.985596
1160.265 12.99194
1160.747 14.76221
1161.229 14.17065
1161.712 13.48389
1162.194 12.96362
1162.676 12.69482
1163.158 12.92529
1163.640 13.54248
1164.122 14.07544
1164.604 14.44263
1165.086 14.11304
1165.568 12.39307
1166.051 12.89111
1166.533 16.49243
1167.015 20.54663
1167.497 24.44824
1167.979 26.82031
1168.461 25.56616
1168.943 29.10571
1169.425 24.67651
1169.908 32.07495
1170.390 35.93311
1170.872 36.01123
1171.354 35.66968
1171.836 35.68311
1172.318 34.58521
1172.800 31.30225
1173.282 28.29297
1173.765 29.25879
1174.247 32.96826
1174.729 36.13354
1175.211 38.85718
1175.693 42.23901
1176.175 45.68652
1176.657 45.65894
1177.139 41.48779
1177.621 36.71899
1178.104 32.88770
1178.586 31.57129
1179.068 37.19312
1179.550 44.49731
1180.032 45.81909
1180.514 43.51685
1180.996 42.05103
1181.478 41.93237
1181.960 41.74976
1182.443 41.12012
1182.925 41.82764
1183.407 46.35254
1183.889 50.44165
1184.371 51.74390
1184.853 51.58374
1185.335 50.85718
1185.817 49.68213
1186.300 47.63306
1186.782 45.03979
1187.264 44.47925
1187.746 48.79663
1188.228 50.24512
1188.710 43.37354
1189.192 38.82251
1189.674 43.38843
1190.156 48.85620
1190.639 48.14062
1191.121 43.86450
1191.603 41.82349
1192.085 42.20020
1192.567 42.38965
1193.049 42.59668
1193.531 41.92627
1194.013 40.01294
1194.495 38.06348
1194.978 36.57544
1195.460 35.37476
1195.942 34.27002
1196.424 33.22461
1196.906 31.21460
1197.388 31.98438
1197.870 28.54590
1198.352 32.72217
1198.835 35.13574
1199.317 34.74438
1199.799 32.90161
1200.281 30.21777
1200.763 27.79736
1201.245 26.51196
1201.727 26.80103
1202.209 31.67749
1202.692 37.58252
1203.174 35.29712
1203.656 27.85718
1204.138 25.67529
1204.620 29.92603
1205.102 32.53174
1205.584 28.87598
1206.066 25.42822
1206.548 29.05176
1207.031 32.15259
1207.513 27.11499
1207.995 20.02612
1208.477 16.86230
1208.959 17.19824
1209.441 19.53027
1209.923 23.45825
1210.405 26.09912
1210.887 26.34692
1211.370 25.95947
1211.852 24.84424
1212.334 23.60718
1212.816 21.97363
1213.298 20.83276
1213.780 21.54175
1214.262 22.97510
1214.744 22.16187
1215.227 18.80811
1215.709 16.11523
1216.191 13.97656
1216.673 13.30151
1217.155 14.78784
1217.637 14.33789
1218.119 9.790283
1218.601 5.098145
1219.083 4.320801
1219.566 6.270508
1220.048 9.068604
1220.530 12.03809
1221.012 11.51807
1221.494 8.081055
1221.976 4.286377
1222.458 0.8881840
1222.940 1.362549
1223.422 2.116211
1223.905 1.761963
1224.387 0.8061520
1224.869 1.344971
1225.351 6.824463
1225.833 12.62695
1226.315 15.14038
1226.797 15.16992
1227.279 13.25977
1227.762 10.54150
1228.244 10.60962
1228.726 15.21704
1229.208 18.73486
1229.690 18.97998
1230.172 17.69800
1230.654 11.47095
1231.136 8.197754
1231.619 17.30786
1232.101 29.47314
1232.583 31.67065
1233.065 25.40747
1233.547 20.41211
1234.029 16.70361
1234.511 14.46655
1234.993 14.22632
1235.475 13.48535
1235.958 11.55688
1236.440 9.632324
1236.922 8.278076
1237.404 8.243408
1237.886 11.39624
1238.368 7.457764
1238.850 11.66528
1239.332 2.526611
1239.814 2.811768
1240.297 4.007813
1240.779 1.608398
1241.261 3.218018
1241.743 5.434570
1242.225 2.273193
1242.707 1.432861
1243.189 1.655518
1243.671 0.2277830
1244.154 1.533203
1244.636 3.728271
1245.118 7.189941
1245.600 10.79175
1246.082 13.09131
1246.564 13.70581
1247.046 11.68237
1247.528 4.941162
1248.010 1.010498
1248.493 1.501221
1248.975 4.498047
1249.457 13.77490
1249.939 19.59302
1250.421 14.50781
1250.903 5.475830
1251.385 1.524902
1251.867 2.016113
1252.349 3.999756
1252.832 7.844482
1253.314 6.635742
1253.796 3.6865000E-02
1254.278 2.075439
1254.760 2.430420
1255.242 6.118164
1255.724 5.740723
1256.206 3.684082
1256.689 1.921143
1257.171 0.9121090
1257.653 2.107910
1258.135 4.175781
1258.617 4.572754
1259.099 4.052002
1259.581 4.523438
1260.063 6.082520
1260.546 7.841064
1261.028 9.556396
1261.510 10.50537
1261.992 9.784912
1262.474 8.968262
1262.956 8.053955
1263.438 6.308594
1263.920 6.076904
1264.402 7.545410
1264.885 11.29248
1265.367 17.37573
1265.849 20.34302
1266.331 19.53931
1266.813 17.66113
1267.295 13.56592
1267.777 12.87866
1268.259 17.13086
1268.741 21.31323
1269.224 23.22827
1269.706 23.65869
1270.188 22.02856
1270.670 18.29443
1271.152 13.55615
1271.634 7.917969
1272.116 3.872070
1272.598 2.372803
1273.081 5.768555
1273.563 12.00220
1274.045 13.43091
1274.527 8.290039
1275.009 4.265137
1275.491 5.634033
1275.973 8.407959
1276.455 10.72778
1276.938 13.33423
1277.420 17.62866
1277.902 21.46997
1278.384 22.99854
1278.866 22.70239
1279.348 21.55811
1279.830 19.55420
1280.312 16.19946
1280.794 10.60596
1281.276 6.900146
1281.759 5.468506
1282.241 3.761475
1282.723 1.014404
1283.205 0.3024900
1283.687 1.409180
1284.169 3.974365
1284.651 4.606934
1285.133 2.835205
1285.616 1.548584
1286.098 0.0000000E+00
