#\#CIF_2.0
#------------------------------------------------------------------------------
#$Date: 2018-04-26 14:01:40 +0300 (Thu, 26 Apr 2018) $
#$Revision: 611 $
#$URL: svn://172.16.1.111/rod/cif/2/10/00/2100013.rod $
#------------------------------------------------------------------------------
#Shining_header
#Data type:raman_database
#CAS:Not entered
#Material scientific name:Rhodostannite
#Manufacturer:Not entered
#Laser model:Not entered
#Spectrometer model:Not entered
#Testing unit:Not entered
#Test time:Not entered
#Other experimental details:Not entered
#Shining_data
140.8576 0.0000000E+00
141.3397 4.5295998E-02
141.8218 6.7329998E-03
142.3039 7.8350000E-02
142.7860 0.4412650
143.2681 0.9317970
143.7503 1.233028
144.2324 1.467949
144.7145 1.278927
145.1966 1.021492
145.6787 0.7003440
146.1608 0.3933300
146.6430 0.1454770
147.1251 3.7907001E-02
147.6072 0.1150890
148.0893 8.2976997E-02
148.5714 0.3008800
149.0535 0.3705250
149.5357 0.2619090
150.0178 0.1061130
150.4999 0.1259650
150.9820 0.4830170
151.4641 0.6621320
151.9462 0.5145000
152.4284 0.2653350
152.9105 6.6334002E-02
153.3926 2.1503000E-02
153.8747 8.2050003E-03
154.3568 8.6220004E-02
154.8389 0.3637390
155.3211 0.6047400
155.8032 0.7808340
156.2853 0.9203110
156.7674 1.070679
157.2495 1.254932
157.7316 1.445789
158.2138 1.510117
158.6959 1.335323
159.1780 1.180038
159.6601 1.098713
160.1422 1.087429
160.6243 1.157539
161.1065 1.342365
161.5886 1.585545
162.0707 1.648476
162.5528 1.318027
163.0349 1.011898
163.5170 1.057186
163.9991 1.412991
164.4813 1.657070
164.9634 1.407459
165.4455 0.8911590
165.9276 0.6473770
166.4097 0.9156300
166.8918 1.333237
167.3740 1.470184
167.8561 1.271854
168.3382 1.052177
168.8203 1.000248
169.3024 1.035328
169.7845 1.074127
170.2667 1.112862
170.7488 1.121300
171.2309 0.9997860
171.7130 0.6253930
172.1951 0.3534890
172.6772 0.3798980
173.1594 0.5652120
173.6415 0.7011680
174.1236 0.6330830
174.6057 0.4194070
175.0878 0.4236760
175.5699 0.8529090
176.0521 1.287949
176.5342 1.700008
177.0163 2.034164
177.4984 2.191349
177.9805 2.172318
178.4626 1.842514
178.9448 1.693665
179.4269 2.006378
179.9090 2.415836
180.3911 2.670731
180.8732 2.798779
181.3553 2.905338
181.8375 2.992935
182.3196 3.015259
182.8017 3.132568
183.2838 3.319759
183.7659 3.495964
184.2480 3.738323
184.7301 4.013935
185.2123 4.303005
185.6944 4.687660
186.1765 5.191597
186.6586 5.498287
187.1407 5.526768
187.6228 5.424408
188.1050 5.242638
188.5871 4.996853
189.0692 4.795818
189.5513 4.777527
190.0334 4.936493
190.5155 5.030022
190.9977 4.975895
191.4798 4.869770
191.9619 4.803547
192.4440 4.782852
192.9261 4.829506
193.4082 5.104939
193.8904 5.510384
194.3725 5.672764
194.8546 5.194817
195.3367 4.442600
195.8188 4.182529
196.3009 4.626854
196.7831 5.242043
197.2652 5.739254
197.7473 6.108166
198.2294 6.273804
198.7115 6.050823
199.1936 5.549656
199.6758 5.361164
200.1579 5.678101
200.6400 6.079170
201.1221 6.425850
201.6042 6.679874
202.0863 6.744686
202.5685 6.443787
203.0506 5.811699
203.5327 5.472584
204.0148 5.811680
204.4969 6.055080
204.9790 5.809956
205.4612 5.215717
205.9433 4.651104
206.4254 4.437298
206.9075 4.600147
207.3896 4.606094
207.8717 4.300091
208.3539 3.968594
208.8360 3.689106
209.3181 3.460331
209.8002 3.254074
210.2823 3.057247
210.7644 2.884880
211.2466 2.592239
211.7287 2.015839
212.2108 1.486786
212.6929 1.189266
213.1750 1.074448
213.6571 0.9362030
214.1393 0.5602530
214.6214 0.1293910
215.1035 0.4958110
215.5856 0.2867550
216.0677 5.5836000E-02
216.5498 7.6114997E-02
217.0320 0.3420790
217.5141 0.7055850
217.9962 1.059147
218.4783 1.413094
218.9604 1.550640
219.4425 1.280113
219.9247 0.9769780
220.4068 0.8695110
220.8889 0.9619290
221.3710 1.126957
221.8531 1.272137
222.3352 1.393234
222.8174 1.469463
223.2995 1.480022
223.7816 1.462200
224.2637 1.462456
224.7458 1.478954
225.2279 1.434711
225.7100 1.224716
226.1922 0.8797570
226.6743 0.6473960
227.1564 0.6846280
227.6385 0.7524600
228.1206 0.6202160
228.6027 0.2736700
229.0849 0.1429710
229.5670 0.6400300
230.0491 1.119427
230.5312 1.312191
231.0133 0.8237230
231.4954 0.2200850
231.9776 0.1997380
232.4597 0.8328820
232.9418 1.556290
233.4239 2.029846
233.9060 2.362007
234.3881 2.706188
234.8703 3.091309
235.3524 3.512459
235.8345 3.966793
236.3166 4.459507
236.7987 4.976871
237.2808 5.524315
237.7630 6.090107
238.2451 6.667213
238.7272 7.248669
239.2093 7.848171
239.6914 8.471237
240.1735 9.103596
240.6557 9.819122
241.1378 10.69971
241.6199 11.65184
242.1020 12.57438
242.5841 13.41204
243.0662 14.26463
243.5484 15.31617
244.0305 16.62180
244.5126 17.97857
244.9947 19.30814
245.4768 20.66628
245.9589 22.11772
246.4410 23.69090
246.9232 25.31419
247.4053 26.92997
247.8874 28.63995
248.3695 30.06521
248.8516 30.95699
249.3337 31.68195
249.8159 32.54873
250.2980 33.64719
250.7801 34.77716
251.2622 35.65128
251.7443 36.33573
252.2264 36.55326
252.7086 36.01555
253.1907 35.26052
253.6728 34.63659
254.1549 34.24194
254.6370 33.97887
255.1191 33.69839
255.6013 33.37254
256.0834 33.09534
256.5655 32.93541
257.0476 32.76859
257.5297 32.44994
258.0118 31.98555
258.4940 31.55612
258.9761 31.40846
259.4582 31.62096
259.9403 31.94628
260.4224 32.53062
260.9045 33.09579
261.3867 33.47217
261.8688 33.64384
262.3509 33.68900
262.8330 33.68102
263.3151 33.57166
263.7972 33.59671
264.2794 33.88137
264.7615 34.16853
265.2436 34.33434
265.7257 34.36567
266.2078 34.29760
266.6899 34.15125
267.1721 33.90560
267.6542 33.72088
268.1363 33.58233
268.6184 33.50267
269.1005 33.54202
269.5826 33.66145
270.0648 33.72585
270.5469 33.60123
271.0290 33.27470
271.5111 33.18082
271.9932 33.44026
272.4753 33.73527
272.9575 33.96334
273.4396 34.16018
273.9217 34.37063
274.4038 34.61633
274.8859 34.87613
275.3680 35.03744
275.8501 35.00737
276.3322 34.99868
276.8144 35.15557
277.2965 35.42707
277.7786 35.62266
278.2607 35.60401
278.7428 35.44050
279.2249 35.48672
279.7071 35.90872
280.1892 36.30070
280.6713 36.54853
281.1534 36.70697
281.6355 36.90062
282.1176 37.20285
282.5998 37.49917
283.0819 37.47020
283.5640 37.04700
284.0461 36.53510
284.5282 35.89126
285.0103 35.19817
285.4925 34.61360
285.9746 34.20757
286.4567 33.89022
286.9388 33.45972
287.4209 32.82230
287.9030 32.34493
288.3852 32.40686
288.8673 32.53233
289.3494 32.10176
289.8315 30.96490
290.3136 29.48250
290.7957 27.97118
291.2779 26.39428
291.7600 25.17533
292.2421 24.58978
292.7242 24.24977
293.2063 23.75777
293.6884 23.06309
294.1706 22.42418
294.6527 22.15905
295.1348 22.26159
295.6169 22.01112
296.0990 21.11981
296.5811 20.05737
297.0633 19.10519
297.5454 18.29536
298.0275 17.68529
298.5096 17.36706
298.9917 17.30462
299.4738 17.17235
299.9560 16.87498
300.4381 16.59703
300.9202 16.41777
301.4023 16.34100
301.8844 16.38385
302.3665 16.58514
302.8487 16.89484
303.3308 17.15966
303.8129 17.39296
304.2950 17.57015
304.7771 17.61217
305.2592 17.58470
305.7414 17.67311
306.2235 17.97102
306.7056 18.37281
307.1877 18.64298
307.6698 18.71455
308.1519 18.92318
308.6341 19.45798
309.1162 20.18307
309.5983 20.86742
310.0804 21.44936
310.5625 21.98637
311.0446 22.54822
311.5268 23.13816
312.0089 23.70738
312.4910 24.22993
312.9731 24.73363
313.4552 25.34296
313.9373 26.08654
314.4195 26.62552
314.9016 26.55703
315.3837 25.91312
315.8658 25.37451
316.3479 25.13898
316.8300 24.92595
317.3121 24.55022
317.7943 23.99625
318.2764 23.22964
318.7585 22.15819
319.2406 20.85143
319.7227 19.66720
320.2048 18.61915
320.6870 17.66830
321.1691 16.84159
321.6512 16.10849
322.1333 15.32695
322.6154 14.40317
323.0975 13.43341
323.5797 12.70560
324.0618 12.34475
324.5439 11.90643
325.0260 11.06308
325.5081 10.05769
325.9902 9.392754
326.4724 9.271645
326.9545 9.359791
327.4366 9.099419
327.9187 8.416519
328.4008 7.885216
328.8829 7.663067
329.3651 7.624767
329.8472 7.649200
330.3293 7.720863
330.8114 7.826054
331.2935 7.921276
331.7756 7.996414
332.2578 8.218395
332.7399 8.681297
333.2220 9.247005
333.7041 9.790783
334.1862 10.29613
334.6683 10.86311
335.1505 11.61073
335.6326 12.51312
336.1147 13.25132
336.5968 13.55026
337.0789 13.97193
337.5610 14.80052
338.0432 15.93250
338.5253 17.13118
339.0074 18.30409
339.4895 19.48581
339.9716 20.72327
340.4537 21.97567
340.9359 23.32531
341.4180 24.75131
341.9001 26.28458
342.3822 28.01298
342.8643 29.94578
343.3464 31.90124
343.8286 33.64787
344.3107 35.09299
344.7928 36.63228
345.2749 38.35554
345.7570 40.07145
346.2391 41.63605
346.7213 43.03862
347.2034 44.38298
347.6855 45.75090
348.1676 47.14735
348.6497 48.36545
349.1318 49.52436
349.6140 50.43114
350.0961 50.89610
350.5782 51.04196
351.0603 51.16760
351.5424 51.46132
352.0245 51.80445
352.5067 51.70246
352.9888 50.86174
353.4709 49.95304
353.9530 49.16198
354.4351 48.31057
354.9172 47.10977
355.3994 45.46567
355.8815 43.64256
356.3636 42.09542
356.8457 41.09491
357.3278 39.81243
357.8099 38.11053
358.2920 36.27050
358.7741 34.39625
359.2563 32.53474
359.7384 30.80034
360.2205 29.31441
360.7026 28.12079
361.1847 26.87823
361.6668 25.46945
362.1490 24.10369
362.6311 22.90751
363.1132 21.80737
363.5953 20.65897
364.0774 19.35626
364.5595 17.94932
365.0417 16.64548
365.5238 15.47016
366.0059 14.38384
366.4880 13.41497
366.9701 12.52262
367.4522 11.64214
367.9344 10.76603
368.4165 9.965931
368.8986 9.382610
369.3807 9.177799
369.8628 8.782871
370.3449 7.938560
370.8271 7.121914
371.3092 6.611336
371.7913 6.381184
372.2734 6.195831
372.7555 5.852741
373.2376 5.358120
373.7198 4.872414
374.2019 4.305111
374.6840 3.871155
375.1661 3.778351
375.6482 3.825291
376.1303 3.678867
376.6125 3.135906
377.0946 2.407253
377.5767 1.973873
378.0588 1.938705
378.5409 1.912773
379.0230 1.848961
379.5052 1.714375
379.9873 1.424294
380.4694 0.9660950
380.9515 0.5423090
381.4336 0.4137460
381.9157 0.5713960
382.3979 0.6111640
382.8800 0.3879740
383.3621 0.1482660
383.8442 7.3833004E-02
384.3263 0.1307300
384.8084 0.1774100
385.2906 0.1269570
385.7727 1.7712001E-02
386.2548 5.9344999E-02
386.7369 8.3751999E-02
387.2190 0.1481930
387.7011 0.3699340
388.1833 0.6477470
388.6654 0.8293230
389.1475 0.8440820
389.6296 0.8323480
390.1117 0.9680230
390.5938 1.218994
391.0760 1.313517
391.5581 1.083643
392.0402 0.7551710
392.5223 0.6644210
393.0044 0.8272400
393.4865 0.9565720
393.9687 0.9249460
394.4508 0.7943710
394.9329 0.6268710
395.4150 0.4202330
395.8971 0.2953990
396.3792 0.3954660
396.8614 0.7009070
397.3435 0.9344120
397.8256 1.101377
398.3077 1.181858
398.7898 1.167797
399.2719 1.058189
399.7540 0.8133160
400.2361 0.3675290
400.7183 0.1545010
401.2004 0.3598840
401.6825 5.9237000E-02
402.1646 0.1708930
402.6467 0.1812800
403.1288 9.2430003E-02
403.6110 4.1746002E-02
404.0931 6.0054999E-02
404.5752 8.8636003E-02
405.0573 5.3927999E-02
405.5394 6.5733001E-02
406.0215 0.1415480
406.5037 0.1779120
406.9858 0.1734070
407.4679 7.3417999E-02
407.9500 7.0556998E-02
408.4321 0.1405030
408.9142 6.0917001E-02
409.3964 0.1435150
409.8785 0.3620130
410.3606 0.7311900
410.8427 0.9250350
411.3248 0.7840190
411.8069 0.5321270
412.2891 0.3722930
412.7712 0.3603020
413.2533 0.4317000
413.7354 0.5226500
414.2175 0.6633450
414.6996 0.7005770
415.1818 0.4513110
415.6639 0.2681120
416.1460 0.3849330
416.6281 0.6841510
417.1102 0.8509650
417.5923 0.6241320
418.0745 0.1743220
418.5566 0.1441500
419.0387 0.8071370
419.5208 1.280581
420.0029 1.079992
420.4850 0.6928830
420.9672 0.5884170
421.4493 0.8840010
421.9314 1.277206
422.4135 1.500937
422.8956 1.556419
423.3777 1.465200
423.8599 1.153477
424.3420 0.7974590
424.8241 0.4342080
425.3062 0.1146870
425.7883 3.6412999E-02
426.2704 0.5073030
426.7526 1.165546
427.2347 1.437532
427.7168 1.302082
428.1989 1.128721
428.6810 1.094940
429.1631 1.158316
429.6453 1.209490
430.1274 1.241507
430.6095 1.276302
431.0916 1.332434
431.5737 1.397484
432.0558 1.428202
432.5380 1.404198
433.0201 1.418116
433.5022 1.622375
433.9843 2.060276
434.4664 2.283110
434.9485 2.098095
435.4307 1.844763
435.9128 1.732801
436.3949 1.748610
436.8770 1.800900
437.3591 1.842373
437.8412 1.869204
438.3234 1.866215
438.8055 1.744205
439.2876 1.708080
439.7697 1.903297
440.2518 2.117033
440.7339 2.081993
441.2160 1.777409
441.6982 1.479795
442.1803 1.540026
442.6624 2.042234
443.1445 2.286652
443.6266 1.961571
444.1087 1.697794
444.5909 1.764156
445.0730 2.008051
445.5551 2.140099
446.0372 1.995951
446.5193 1.723423
447.0014 1.682018
447.4836 1.983013
447.9657 2.180351
448.4478 2.177113
448.9299 2.052145
449.4120 1.784904
449.8941 1.417341
450.3763 1.140104
450.8584 1.177092
451.3405 1.437300
451.8226 1.507067
452.3047 1.301794
452.7868 1.122377
453.2690 1.203871
453.7511 1.405994
454.2332 1.524662
454.7153 1.483431
455.1974 1.387125
455.6795 1.305359
456.1617 1.258957
456.6438 1.271307
457.1259 1.352551
457.6080 1.440386
458.0901 1.425146
458.5722 1.311365
459.0544 1.244545
459.5365 1.290344
460.0186 1.345221
460.5007 1.303556
460.9828 1.194468
461.4649 1.184254
461.9471 1.406590
462.4292 1.767288
462.9113 1.879587
463.3934 1.488436
463.8755 1.209723
464.3576 1.155231
464.8398 1.215366
465.3219 1.312431
465.8040 1.410654
466.2861 1.457827
466.7682 1.390934
467.2503 1.199022
467.7325 1.067890
468.2146 0.9752920
468.6967 0.9611910
469.1788 1.081398
469.6609 1.270590
470.1430 1.458214
470.6252 1.621784
471.1073 1.729023
471.5894 1.697264
472.0715 1.490965
472.5536 1.304384
473.0357 1.146275
473.5179 1.019350
474.0000 0.9517350
474.4821 0.9390770
474.9642 0.9377310
475.4463 0.8934970
475.9284 0.8319380
476.4106 0.8856030
476.8927 1.108774
477.3748 1.275351
477.8569 1.204401
478.3390 1.046125
478.8211 1.094936
479.3033 1.469954
479.7854 1.705988
480.2675 1.413157
480.7496 0.8573280
481.2317 0.5348090
481.7138 0.5347900
482.1959 0.6340900
482.6780 0.6447260
483.1602 0.5635620
483.6423 0.4977260
484.1244 0.4349140
484.6065 0.4518740
485.0886 0.6549930
485.5707 0.9229850
486.0529 1.046803
486.5350 0.9520400
487.0171 0.7294240
487.4992 0.5098020
487.9813 0.2338490
488.4634 0.1288390
488.9456 0.3536220
489.4277 0.5687980
489.9098 0.5943550
490.3919 0.4755780
490.8740 0.3383640
491.3561 0.2533000
491.8383 0.2226560
492.3204 0.2537960
492.8025 0.3586290
493.2846 0.4892830
493.7667 0.7041570
494.2488 0.8927970
494.7310 0.9882760
495.2131 0.9836350
495.6952 0.8955710
496.1773 0.6841180
496.6594 0.4010730
497.1415 0.1636770
497.6237 4.6705000E-02
498.1058 9.3301997E-02
498.5879 0.2101990
499.0700 0.6860600
499.5521 0.9958520
500.0342 1.103378
500.5164 1.112877
500.9985 1.020214
501.4806 0.8708970
501.9627 0.7434100
502.4448 0.6569840
502.9269 0.6013390
503.4091 0.5649850
503.8912 0.5474360
504.3733 0.5497420
504.8554 0.5724200
505.3375 0.6180080
505.8196 0.6912690
506.3018 0.7836510
506.7839 0.9045790
507.2660 1.052465
507.7481 1.163845
508.2302 1.125195
508.7123 0.8754270
509.1945 0.7169090
509.6766 0.7470040
510.1587 0.7649100
510.6408 0.6947170
511.1229 0.5587250
511.6050 0.4079860
512.0872 0.2683600
512.5693 0.1171300
513.0514 0.1467800
513.5335 0.5702100
514.0156 0.7348980
514.4977 0.3554290
514.9799 0.1221450
515.4620 0.3117900
515.9441 0.2474520
516.4262 0.1854150
516.9083 0.2404650
517.3904 0.3521020
517.8726 0.4361360
518.3547 0.4954240
518.8368 0.5981410
519.3189 0.8018400
519.8010 1.039356
520.2831 1.157694
520.7653 1.168663
521.2474 1.065933
521.7295 0.6672940
522.2116 0.2804700
522.6937 0.2306710
523.1758 0.4878440
523.6580 0.7770580
524.1401 0.9073410
524.6222 0.8956790
525.1043 0.8208710
525.5864 0.5298210
526.0685 0.4034270
526.5507 0.6480810
527.0328 0.9405960
527.5149 0.9638390
527.9970 0.7203920
528.4791 0.5064090
528.9612 0.6405430
529.4434 1.039793
529.9255 1.161539
530.4076 0.8650050
530.8897 0.6176070
531.3718 0.6595330
531.8539 0.8355080
532.3361 1.020386
532.8182 1.207436
533.3003 1.320738
533.7824 1.286842
534.2645 1.149313
534.7466 0.9655840
535.2288 0.7335430
535.7109 0.5841730
536.1930 0.6373270
536.6751 0.8635690
537.1572 1.054502
537.6393 1.209923
538.1215 1.334702
538.6036 1.453888
539.0857 1.532913
539.5678 1.504116
540.0499 1.365597
540.5320 1.211079
541.0142 1.145536
541.4963 1.173241
541.9784 1.142632
542.4604 0.9746780
542.9426 0.8413140
543.4247 0.7672810
543.9068 0.7502440
544.3889 0.7881600
544.8710 0.8794960
545.3531 1.018013
545.8353 1.247650
546.3174 1.549810
546.7995 1.688814
547.2816 1.614962
547.7637 1.456467
548.2458 1.185118
548.7280 0.9044610
549.2101 0.8053460
549.6922 0.9861240
550.1743 1.209911
550.6564 1.358622
551.1385 1.439211
551.6207 1.479530
552.1028 1.441877
552.5849 1.357540
553.0670 1.232937
553.5491 1.067635
554.0313 0.9651870
554.5134 0.8788050
554.9955 0.8999690
555.4776 1.145437
555.9597 1.469477
556.4418 1.709179
556.9240 1.816093
557.4061 1.826382
557.8882 1.764658
558.3703 1.627432
558.8524 1.525597
559.3345 1.459173
559.8167 1.432945
560.2988 1.487364
560.7809 1.559782
561.2630 1.560120
561.7451 1.458876
562.2272 1.361162
562.7094 1.344854
563.1915 1.405064
563.6736 1.559406
564.1557 1.839804
564.6378 2.062899
565.1199 2.093210
565.6021 1.951300
566.0842 1.771912
566.5663 1.510756
567.0484 1.275967
567.5305 1.023140
568.0126 0.8559230
568.4948 1.004128
568.9769 1.454416
569.4590 1.838642
569.9411 1.787411
570.4232 1.329996
570.9053 1.028830
571.3875 0.9649870
571.8696 0.9328350
572.3517 0.9119660
572.8338 0.9316080
573.3159 1.048626
573.7980 1.258902
574.2802 1.455244
574.7623 1.513245
575.2444 1.475882
575.7265 1.571556
576.2086 1.872108
576.6907 1.994265
577.1729 1.628120
577.6550 1.045431
578.1371 0.6762620
578.6192 0.5451510
579.1013 0.5487610
579.5834 0.7743990
580.0656 1.040020
580.5477 1.096502
581.0298 0.9619920
581.5119 0.8731460
581.9940 0.9867650
582.4761 1.227261
582.9583 1.320934
583.4404 1.208986
583.9225 1.026709
584.4046 0.5603690
584.8867 0.2081910
585.3688 0.3555200
585.8510 0.8692740
586.3331 1.274340
586.8152 1.238686
587.2973 0.9742260
587.7794 1.018816
588.2615 1.445105
588.7437 1.672888
589.2258 1.423937
589.7079 1.071455
590.1900 0.9912590
590.6721 1.136606
591.1542 1.221380
591.6364 1.082619
592.1185 0.9122280
592.6006 0.9001810
593.0827 0.9944060
593.5648 1.009480
594.0469 0.8700600
594.5291 0.7249810
595.0112 0.8063350
595.4933 1.211464
595.9754 1.396326
596.4575 1.129885
596.9396 0.9341640
597.4218 1.144411
597.9039 1.484762
598.3860 1.496063
598.8681 1.049332
599.3502 0.5153310
599.8323 0.3961540
600.3145 0.6866150
600.7966 0.7873290
601.2787 0.5705870
601.7608 0.3825760
602.2429 0.5134050
602.7250 0.7708050
603.2072 0.8313120
603.6893 0.5628360
604.1714 0.3781800
604.6535 0.6130810
605.1356 1.003521
605.6177 1.128147
606.0999 0.9596960
606.5820 0.8051240
607.0641 0.9157710
607.5462 1.179523
608.0283 1.066252
608.5104 5.6561001E-02
608.9926 0.6405490
609.4747 0.1872080
609.9568 0.4454780
610.4389 0.6360360
610.9210 0.4343810
611.4031 0.2588860
611.8853 0.3945600
612.3674 0.6856310
612.8495 0.8211040
613.3316 0.7936290
613.8137 0.7014290
614.2958 0.5081620
614.7780 0.3366790
615.2601 0.3453200
615.7422 0.5006070
616.2243 0.6031320
616.7064 0.6036820
617.1885 0.5485760
617.6707 0.4147380
618.1528 0.2560500
618.6349 0.1725790
619.1170 0.1951330
619.5991 0.3120120
620.0812 0.5414560
620.5634 0.9067460
621.0455 1.035015
621.5276 0.6420060
622.0097 0.3639070
622.4918 0.4129560
622.9739 0.5720100
623.4561 0.6476780
623.9382 0.5989150
624.4203 0.5006030
624.9023 0.3668160
625.3845 0.2455270
625.8666 0.2828140
626.3487 0.4950730
626.8308 0.6499860
627.3129 0.6162620
627.7950 0.4881420
628.2772 0.4531270
628.7593 0.5373710
629.2414 0.5721280
629.7235 0.4662090
630.2056 0.3622360
630.6877 0.3705160
631.1699 0.4608970
631.6520 0.5602090
632.1341 0.6351430
632.6162 0.6645260
633.0983 0.5969350
633.5804 0.4059010
634.0626 0.2523270
634.5447 0.1110970
635.0268 3.8075998E-02
635.5089 9.5849998E-02
635.9910 0.2222670
636.4731 0.3404390
636.9553 0.4490720
637.4374 0.4697670
637.9195 0.2251320
638.4016 0.1094760
638.8837 0.1653590
639.3658 9.1849998E-02
639.8480 0.4124890
640.3301 0.6558490
640.8122 0.7924710
641.2943 0.7889290
641.7764 0.4979000
642.2585 0.2936550
642.7407 0.1867120
643.2228 0.1565590
643.7049 0.2662980
644.1870 0.4383740
644.6691 0.4874320
645.1512 0.3026980
645.6334 2.0514000E-02
646.1155 0.1563470
646.5976 0.2290080
647.0797 0.2244910
647.5618 0.1404090
648.0439 6.8339999E-03
648.5261 0.2719230
649.0082 0.5916420
649.4903 0.7543810
649.9724 0.6423650
650.4545 0.5303000
650.9366 0.5806390
651.4188 0.6574120
651.9009 0.5422310
652.3830 0.2546180
652.8651 5.6274001E-02
653.3472 0.1549970
653.8293 0.4605260
654.3115 0.6522050
654.7936 0.7504900
655.2757 0.6827090
655.7578 0.1495610
656.2399 0.3034730
656.7220 0.3202040
657.2042 1.0950000E-03
657.6863 0.3305380
658.1684 0.5786760
658.6505 0.7685320
659.1326 0.9181790
659.6147 0.9833260
660.0969 0.8303260
660.5790 0.4182890
661.0611 6.7951001E-02
661.5432 9.6438996E-02
662.0253 0.4533160
662.5074 0.5889280
662.9896 0.2609980
663.4717 3.0451000E-02
663.9538 1.0430000E-03
664.4359 4.5706000E-02
664.9180 7.9590000E-02
665.4001 7.9914004E-02
665.8823 7.4896000E-02
666.3644 5.1293999E-02
666.8465 5.2979998E-02
667.3286 0.3433780
667.8107 0.8917640
668.2928 1.057367
668.7750 0.5510460
669.2571 1.1963000E-02
669.7392 2.1854000E-02
670.2213 0.5870740
670.7034 0.8521750
671.1855 0.5665610
671.6677 0.2824230
672.1498 0.1526490
672.6319 0.1235410
673.1140 0.1412320
673.5961 0.1954350
674.0782 0.3148820
674.5604 0.5496100
675.0425 0.8157830
675.5246 0.7771210
676.0067 0.3148940
676.4888 9.3670003E-02
676.9709 0.4550630
677.4531 0.8538610
677.9352 0.8117120
678.4173 0.4419290
678.8994 0.1419410
679.3815 4.3561999E-02
679.8636 8.0282003E-02
680.3458 0.2204550
680.8279 0.6183300
681.3100 0.6802020
681.7921 0.3648090
682.2742 7.1560000E-03
682.7563 0.1275500
683.2385 6.6242002E-02
683.7206 7.7588998E-02
684.2027 0.4048750
684.6848 0.5936790
685.1669 0.4248660
685.6490 0.2628900
686.1312 0.3865450
686.6133 0.6926540
687.0954 0.8416230
687.5775 0.6340080
688.0596 0.3576680
688.5417 0.2720570
689.0239 0.3123510
689.5060 0.3375570
689.9881 0.3209900
690.4702 0.2709410
690.9523 0.1778870
691.4344 6.8382002E-02
691.9166 7.8892000E-02
692.3987 0.3180310
692.8808 0.5056500
693.3629 0.6709190
693.8450 0.7459980
694.3271 0.6091710
694.8093 0.3524150
695.2914 0.2195930
695.7735 0.3593670
696.2556 0.5238110
696.7377 0.3645110
697.2198 4.1999999E-03
697.7020 0.1305240
698.1841 3.6527999E-02
698.6662 0.2702920
699.1483 0.4218600
699.6304 0.5045760
700.1125 0.5651550
700.5947 0.6238650
701.0768 0.6289140
701.5589 0.5545520
702.0410 0.4626710
702.5231 0.3594840
703.0052 0.2559660
703.4874 0.1671300
703.9695 0.1270960
704.4516 0.1461220
704.9337 0.2661690
705.4158 0.4670120
705.8979 0.6553750
706.3801 0.8299640
706.8622 0.8817710
707.3442 0.6946450
707.8264 0.3813420
708.3085 0.2368830
708.7906 0.3370650
709.2727 0.4018040
709.7548 0.3427990
710.2369 0.3116170
710.7191 0.4380040
711.2012 0.6453930
711.6833 0.7939020
712.1654 0.8330970
712.6475 0.8114710
713.1296 0.7871510
713.6118 0.7526100
714.0939 0.6438710
714.5760 0.4699340
715.0581 0.2668360
715.5402 5.8017999E-02
716.0223 0.3344890
716.5045 0.1904360
716.9866 0.4809230
717.4687 0.8867450
717.9508 0.7928270
718.4329 0.5954000
718.9150 0.3926580
719.3972 0.2533270
719.8793 0.3248900
720.3614 0.6087430
720.8435 0.8202630
721.3256 0.5906370
721.8077 8.1010997E-02
722.2899 5.3829998E-03
722.7720 0.3890500
723.2541 0.7038440
723.7362 0.7300790
724.2183 0.6541650
724.7004 0.7181220
725.1826 0.9166320
725.6647 0.9694590
726.1468 0.7741470
726.6289 0.5393310
727.1110 0.1889680
727.5931 7.3818997E-02
728.0753 6.5240003E-02
728.5574 0.5649680
729.0395 1.045830
729.5216 1.245586
730.0037 1.220054
730.4858 1.028319
730.9680 0.6599320
731.4501 0.4645320
731.9322 0.5654860
732.4143 0.7213140
732.8964 0.7345010
733.3785 0.6334490
733.8607 0.5803110
734.3428 0.6196920
734.8249 0.6391780
735.3070 0.6042270
735.7891 0.5467920
736.2712 0.4557140
736.7534 0.3679360
737.2355 0.3675260
737.7176 0.5091980
738.1997 0.7267060
738.6818 0.9381120
739.1639 1.129861
739.6461 1.143298
740.1282 0.9229050
740.6103 0.6883010
741.0924 0.5847240
741.5745 0.5577910
742.0566 0.4562970
742.5388 0.2256020
743.0209 0.1043440
743.5030 0.1875900
743.9851 0.3071330
744.4672 0.4136570
744.9493 0.4712480
745.4315 0.4770310
745.9136 0.4340650
746.3957 0.4004940
746.8778 0.4594950
747.3599 0.5668220
747.8420 0.5688960
748.3242 0.4622250
748.8063 0.3877740
749.2884 0.3967990
749.7705 0.4385890
750.2526 0.4484100
750.7347 0.4194310
751.2169 0.4392680
751.6990 0.5681680
752.1811 0.6635100
752.6632 0.6637510
753.1453 0.6387320
753.6274 0.6371930
754.1096 0.6716920
754.5917 0.7686050
755.0738 0.9867160
755.5559 1.157141
756.0380 0.9513330
756.5201 0.4855830
757.0023 0.3613930
757.4844 0.7003180
757.9665 0.9729490
758.4486 0.7782750
758.9307 0.2624420
759.4128 9.3027003E-02
759.8950 0.3374600
760.3771 0.3202490
760.8592 0.2435670
761.3413 0.7487200
761.8234 0.8626140
762.3055 0.7484890
762.7877 0.6945530
763.2698 0.7809880
763.7519 0.8320960
764.2340 0.6396470
764.7161 0.3710500
765.1982 0.2988520
765.6804 0.4066320
766.1625 0.5686840
766.6446 0.7443020
767.1267 0.8915520
767.6088 0.9508800
768.0909 0.9193290
768.5731 0.8824580
769.0552 0.8074450
769.5373 0.7808970
770.0194 0.9009170
770.5015 1.011873
770.9836 0.9564570
771.4658 0.7670680
771.9479 0.6388760
772.4300 0.6863900
772.9121 0.7505640
773.3942 0.7147300
773.8763 0.6066490
774.3585 0.4447720
774.8406 0.2790260
775.3227 0.2938170
775.8048 0.6488130
776.2869 1.149377
776.7690 1.316623
777.2512 1.102096
777.7333 0.8665780
778.2154 0.5631760
778.6975 0.3695320
779.1796 0.4816120
779.6617 0.7179520
780.1439 0.7414300
780.6260 0.4725280
781.1081 0.4176450
781.5902 1.080516
782.0723 1.613896
782.5544 1.289432
783.0366 0.5253900
783.5187 3.7470002E-02
784.0008 7.8870002E-03
784.4829 0.1423350
784.9650 0.1781870
785.4471 0.1528060
785.9293 0.2434670
786.4114 0.4505280
786.8935 0.6119380
787.3756 0.6884320
787.8577 0.7079240
788.3398 0.6739600
788.8220 0.5992670
789.3040 0.5915650
789.7861 0.7739730
790.2682 0.8454210
790.7504 0.7154260
791.2325 0.5310410
791.7146 0.2988590
792.1967 0.1048810
792.6788 0.1397900
793.1609 0.4997490
793.6431 0.8528770
794.1252 0.8547550
794.6073 0.6735720
795.0894 0.6577290
795.5715 0.7898500
796.0536 0.7857620
796.5358 0.5157320
797.0179 0.1862610
797.5000 8.5621998E-02
797.9821 0.2230110
798.4642 0.3642700
798.9464 0.5323450
799.4285 0.6625340
799.9106 0.8196130
800.3927 0.8667600
800.8748 0.5706010
801.3569 3.7099000E-02
801.8391 0.2338060
802.3212 7.5397000E-02
802.8033 0.3966110
803.2854 0.3924200
803.7675 0.2657610
804.2496 0.2596190
804.7318 0.3702010
805.2139 0.4682320
805.6960 0.4842450
806.1781 0.4473250
806.6602 0.4035110
807.1423 0.3527480
807.6245 0.2709090
808.1066 0.1435930
808.5887 4.2544000E-02
809.0708 3.1266000E-02
809.5529 1.6669000E-02
810.0350 0.2316310
810.5172 0.7880920
810.9993 1.067802
811.4814 0.7212370
811.9635 0.5457780
812.4456 1.075835
812.9277 1.645259
813.4099 1.498362
813.8920 0.7384970
814.3741 0.1086260
814.8562 1.5480000E-03
815.3383 0.1179670
815.8204 0.1914440
816.3026 0.2424070
816.7847 0.3294940
817.2668 0.4409850
817.7489 0.4929340
818.2310 0.4507550
818.7131 0.3946160
819.1953 0.4080670
819.6774 0.4983670
820.1595 0.6200470
820.6416 0.8739230
821.1237 0.9655120
821.6058 0.6128950
822.0880 0.1637710
822.5701 1.3811000E-02
823.0522 0.1582110
823.5343 0.3140400
824.0164 0.4533180
824.4985 0.5599590
824.9807 0.5971880
825.4628 0.6171580
825.9449 0.7046550
826.4270 0.8380360
826.9091 0.9090020
827.3912 0.8552030
827.8734 0.7215880
828.3555 0.4921490
828.8376 0.2297270
829.3197 0.2863250
829.8018 0.6946870
830.2839 0.9108260
830.7661 0.6146150
831.2482 0.1312080
831.7303 3.1069999E-03
832.2124 0.2584980
832.6945 0.5377320
833.1766 1.026900
833.6588 1.247635
834.1409 0.8648270
834.6230 0.3698150
835.1051 0.1500100
835.5872 0.1889250
836.0693 0.2781260
836.5515 0.4292000
837.0336 0.5001450
837.5157 0.3076850
837.9978 6.3828997E-02
838.4799 7.8006998E-02
838.9620 0.2775310
839.4442 0.3577960
839.9263 0.1904520
840.4084 3.5516001E-02
840.8905 4.4682998E-02
841.3726 0.1198430
841.8547 0.2060370
842.3369 0.2035750
842.8190 0.2808280
843.3011 0.5410790
843.7832 0.7742800
844.2653 0.6994210
844.7474 0.3270920
845.2296 0.1522220
845.7117 0.3565470
846.1938 0.4950000
846.6759 0.4794040
847.1580 0.4354580
847.6401 0.4259880
848.1223 0.4544660
848.6044 0.5139850
849.0865 0.6027970
849.5686 0.7024650
850.0507 0.8832240
850.5328 1.024282
851.0150 0.8898410
851.4971 0.5742800
851.9792 0.3768250
852.4613 0.3970310
852.9434 0.5053470
853.4255 0.5973110
853.9077 0.6605810
854.3898 0.6498240
854.8719 0.5754740
855.3540 0.4440950
855.8361 0.1983110
856.3182 9.6855000E-02
856.8004 0.3932990
857.2825 0.9211380
857.7646 1.135334
858.2467 0.8430930
858.7288 0.6527040
859.2109 0.6680930
859.6931 0.6453830
860.1752 0.4652850
860.6573 0.2554700
861.1394 0.2240030
861.6215 0.3800340
862.1036 0.4576180
862.5858 0.2294140
863.0679 1.8754000E-02
863.5500 0.1050710
864.0321 0.3145730
864.5142 0.3756760
864.9963 0.2932090
865.4785 0.2900440
865.9606 0.5100940
866.4427 0.7570070
866.9248 0.6513600
867.4069 0.2871620
867.8890 0.2070520
868.3712 0.4513110
868.8533 0.6087680
869.3354 0.4896190
869.8175 0.2792560
870.2996 0.2225270
870.7817 0.3205950
871.2639 0.4243420
871.7459 0.5280470
872.2280 0.6467100
872.7101 0.8391910
873.1923 0.9951850
873.6744 1.040802
874.1565 1.006213
874.6386 0.9174950
875.1207 0.7438340
875.6028 0.6620470
876.0850 0.8371360
876.5671 1.026668
877.0492 1.061438
877.5313 0.9792070
878.0134 0.8218630
878.4955 0.6244190
878.9777 0.5102000
879.4598 0.6364430
879.9419 0.8276000
880.4240 0.7714060
880.9061 0.5304230
881.3882 0.3027420
881.8704 0.1258000
882.3525 5.4023001E-02
882.8346 0.1341780
883.3167 0.2907090
883.7988 0.3644470
884.2809 0.3437920
884.7631 0.3256570
885.2452 0.3017600
885.7273 0.2997310
886.2094 0.3204760
886.6915 0.3770450
887.1736 0.5103850
887.6558 0.7120190
888.1379 0.8469240
888.6200 0.8746570
889.1021 0.8868770
889.5842 0.9109060
890.0663 0.9144120
890.5485 0.8752370
891.0306 0.7962140
891.5127 0.6605670
891.9948 0.4573090
892.4769 0.3322670
892.9590 0.4546220
893.4412 0.6375450
893.9233 0.7293080
894.4054 0.7127000
894.8875 0.4947480
895.3696 0.1043130
895.8517 0.1919580
896.3339 0.1823470
896.8160 3.5659999E-03
897.2981 0.1055410
897.7802 0.1358060
898.2623 0.2507790
898.7444 0.4803080
899.2266 0.5920350
899.7087 0.4394500
900.1908 0.2133980
900.6729 0.2114770
901.1550 0.4486500
901.6371 0.5783570
902.1193 0.5424220
902.6014 0.5095630
903.0835 0.5502660
903.5656 0.5637420
904.0477 0.4539050
904.5298 0.2678520
905.0120 0.1169850
905.4941 1.5288000E-02
905.9762 2.9410001E-02
906.4583 0.3201100
906.9404 0.5605500
907.4225 0.2271180
907.9047 0.2968160
908.3868 0.4549000
908.8689 0.1878060
909.3510 0.1480480
909.8331 0.3987370
910.3152 0.5406820
910.7974 0.5239530
911.2795 0.3925230
911.7616 0.1413490
912.2437 0.1608510
912.7258 0.2225630
913.2079 9.5109001E-02
913.6901 0.5040220
914.1722 0.5905590
914.6543 0.4250610
915.1364 0.4331840
915.6185 0.6225920
916.1006 0.7592480
916.5828 0.7784030
917.0649 0.7677120
917.5470 0.8107040
918.0291 0.8721690
918.5112 0.8169610
918.9933 0.5822360
919.4755 0.3849450
919.9576 0.1740640
920.4397 7.5828999E-02
920.9218 0.2619380
921.4039 0.5069780
921.8860 0.5360100
922.3682 0.3564010
922.8503 0.2498780
923.3324 0.3104260
923.8145 0.3736560
924.2966 0.4019810
924.7787 0.4082700
925.2609 0.4023170
925.7430 0.3832640
926.2251 0.3248390
926.7072 0.2159610
927.1893 0.1825020
927.6714 0.3744430
928.1536 0.6218360
928.6357 0.7931900
929.1178 0.8768060
929.5999 0.8525490
930.0820 0.7259550
930.5641 0.5052540
931.0463 0.1698740
931.5284 0.1059550
932.0105 5.5002999E-02
932.4926 0.5194250
932.9747 0.7126660
933.4568 0.6174770
933.9390 0.4961820
934.4211 0.4448940
934.9032 0.4075430
935.3853 0.3168420
935.8674 0.1907800
936.3495 0.1377290
936.8317 0.1651630
937.3138 0.2281420
937.7959 0.3398810
938.2780 0.4447420
938.7601 0.5008700
939.2422 0.5428610
939.7244 0.6532600
940.2065 0.8700360
940.6886 0.9301360
941.1707 0.6979550
941.6528 0.5003850
942.1349 0.4356040
942.6171 0.3926840
943.0992 0.2498620
943.5813 6.7538001E-02
944.0634 1.9867999E-02
944.5455 0.1742900
945.0276 0.3334300
945.5098 0.3427800
945.9919 0.4243710
946.4740 0.9182990
946.9561 1.466497
947.4382 1.503309
947.9203 1.045829
948.4025 0.6248990
948.8846 0.5129690
949.3667 0.5626060
949.8488 0.6970330
950.3309 0.8638700
950.8130 1.024137
951.2952 1.148643
951.7773 1.119021
952.2594 0.9027350
952.7415 0.6295370
953.2236 0.3877320
953.7057 0.1952440
954.1878 0.1728030
954.6699 0.3034460
955.1520 0.3806500
955.6342 0.3771100
956.1163 0.4279520
956.5984 0.6242310
957.0805 0.8054440
957.5626 0.6755860
958.0447 0.2431760
958.5269 6.1207999E-02
959.0090 0.1750160
959.4911 0.3654960
959.9732 0.6539870
960.4553 0.8473190
960.9374 0.7594910
961.4196 0.5009890
961.9017 0.3448780
962.3838 0.3085400
962.8659 0.2985270
963.3480 0.2820990
963.8301 0.3351080
964.3123 0.5796230
964.7944 0.8212200
965.2765 0.8956450
965.7586 0.8011650
966.2407 0.6401130
966.7228 0.3265550
967.2050 0.2220720
967.6871 0.5939040
968.1692 0.9635510
968.6513 1.057001
969.1334 0.9823260
969.6155 0.8853560
970.0977 0.7788520
970.5798 0.6380060
971.0619 0.4300140
971.5440 0.2507280
972.0261 0.1512590
972.5082 0.1288990
972.9904 0.2444840
973.4725 0.4205530
973.9546 0.4684250
974.4367 0.3452520
974.9188 0.2424800
975.4009 0.3157650
975.8831 0.4875260
976.3652 0.7584820
976.8473 1.013964
977.3294 0.9308820
977.8115 0.5598150
978.2936 0.2961660
978.7758 0.3588840
979.2579 0.5168290
979.7400 0.4824080
980.2221 0.3121070
980.7042 0.1736510
981.1863 7.1130000E-02
981.6685 4.3871999E-02
982.1506 9.9716000E-02
982.6327 0.1954560
983.1148 0.3062290
983.5969 0.4260690
984.0790 0.5730810
984.5612 0.7495900
985.0433 0.7150960
985.5254 0.4340840
986.0075 0.2198870
986.4896 0.1572540
986.9717 0.1727360
987.4539 0.2229710
987.9360 0.2905760
988.4181 0.3135050
988.9002 0.2571400
989.3823 0.2754660
989.8644 0.4407760
990.3466 0.5808480
990.8287 0.6466800
991.3108 0.6654640
991.7929 0.6770810
992.2750 0.6600120
992.7571 0.5445260
993.2393 0.1679650
993.7214 1.2742000E-02
994.2035 0.1977270
994.6856 0.3780510
995.1677 0.3362260
995.6498 0.2058660
996.1320 0.1101330
996.6141 6.0236000E-02
997.0962 6.5577000E-02
997.5783 0.1526830
998.0604 0.2572860
998.5425 0.4228640
999.0247 0.5382880
999.5068 0.5074110
999.9889 0.3934280
1000.471 0.2794970
1000.953 0.1850110
1001.435 0.1333750
1001.917 0.1217870
1002.399 0.1770510
1002.882 0.4288910
1003.364 0.6523470
1003.846 0.5710150
1004.328 0.3202190
1004.810 0.1713680
1005.292 0.1958190
1005.774 0.3332060
1006.256 0.6757680
1006.739 0.9408250
1007.221 0.7914370
1007.703 0.4434330
1008.185 0.1130630
1008.667 0.1225430
1009.149 0.1026120
1009.631 0.2040680
1010.113 0.4764230
1010.595 0.3831610
1011.078 0.1456260
1011.560 9.5273003E-02
1012.042 0.1626310
1012.524 0.1535120
1013.006 8.3240002E-02
1013.488 0.1829330
1013.970 0.5471790
1014.452 0.8743420
1014.935 0.7513480
1015.417 0.4000870
1015.899 0.4379430
1016.381 0.7635860
1016.863 0.9139020
1017.345 0.8222610
1017.827 0.5693160
1018.309 0.1855370
1018.791 0.1457500
1019.274 0.1304100
1019.756 0.1438460
1020.238 0.1997330
1020.720 5.1987998E-02
1021.202 0.1630340
1021.684 0.6326340
1022.166 0.9665470
1022.648 0.8633950
1023.130 0.5507770
1023.613 0.3806520
1024.095 0.3472700
1024.577 0.3731600
1025.059 0.4709870
1025.541 0.5018590
1026.023 0.4135250
1026.505 0.3931460
1026.987 0.5968310
1027.469 0.8495630
1027.952 0.7949390
1028.434 0.4111300
1028.916 0.2861900
1029.398 0.5325150
1029.880 0.6197640
1030.362 0.3783090
1030.844 0.1220870
1031.326 3.4750000E-02
1031.809 9.2804998E-02
1032.291 0.2827310
1032.773 0.6481530
1033.255 0.7675390
1033.737 0.5366190
1034.219 0.2716840
1034.701 0.1040150
1035.183 0.2869950
1035.666 4.2998999E-02
1036.148 0.6326890
1036.630 0.9560700
1037.112 0.9811240
1037.594 0.9154600
1038.076 0.6483850
1038.558 0.4662150
1039.040 0.4905980
1039.522 0.5343220
1040.005 0.4890280
1040.487 0.3751880
1040.969 0.2067970
1041.451 6.2753998E-02
1041.933 0.1483740
1042.415 9.6566997E-02
1042.897 0.3267990
1043.379 0.5519320
1043.861 0.6711300
1044.344 0.4849420
1044.826 0.1913100
1045.308 0.2311160
1045.790 0.7341790
1046.272 1.009793
1046.754 0.8059630
1047.236 0.5644920
1047.718 0.3419960
1048.201 0.1694160
1048.683 1.6004000E-02
1049.165 5.6540001E-02
1049.647 0.1423300
1050.129 0.6783430
1050.611 0.9224540
1051.093 0.4042160
1051.575 5.2598000E-02
1052.057 0.3814180
1052.540 0.7447740
1053.022 0.5492590
1053.504 9.6960999E-02
1053.986 2.3618000E-02
1054.468 0.4287540
1054.950 0.7199190
1055.432 0.7215570
1055.914 0.6115070
1056.396 0.2546460
1056.879 1.4900001E-03
1057.361 0.2241340
1057.843 0.6824560
1058.325 0.9514390
1058.807 0.9630020
1059.289 0.8318310
1059.771 0.3766740
1060.253 8.0201000E-02
1060.736 0.2744310
1061.218 0.5487310
1061.700 0.5612290
1062.182 0.4473680
1062.664 0.4867610
1063.146 0.7142910
1063.628 0.8780050
1064.110 0.9022210
1064.593 0.8401100
1065.075 0.5906790
1065.557 0.3845160
1066.039 0.4911850
1066.521 0.7059380
1067.003 0.6588610
1067.485 0.3486180
1067.967 0.2221660
1068.449 0.6002380
1068.932 0.9254250
1069.414 0.9403810
1069.896 0.8172630
1070.378 0.5605350
1070.860 0.3201140
1071.342 0.3498350
1071.824 0.6218100
1072.306 0.7699910
1072.788 0.5849750
1073.271 0.4315560
1073.753 0.5557490
1074.235 0.6927820
1074.717 0.6331810
1075.199 0.4803960
1075.681 0.3686310
1076.163 0.3127810
1076.645 0.2687760
1077.127 0.2436400
1077.610 0.2167610
1078.092 0.1348750
1078.574 7.3464997E-02
1079.056 6.1526999E-02
1079.538 0.1203860
1080.020 0.3211720
1080.502 0.6019120
1080.984 0.7371970
1081.467 0.6331830
1081.949 0.5037890
1082.431 0.3763070
1082.913 0.3318510
1083.395 0.5051230
1083.877 0.7217800
1084.359 0.8310780
1084.841 0.8141270
1085.323 0.6383290
1085.806 0.2669680
1086.288 2.9041000E-02
1086.770 0.1744520
1087.252 0.3491350
1087.734 0.3356160
1088.216 0.2974410
1088.698 0.4343440
1089.180 0.6563430
1089.662 0.7284890
1090.145 0.6016630
1090.627 0.5740100
1091.109 0.9224390
1091.591 1.173092
1092.073 1.003712
1092.555 0.7672790
1093.037 0.8265540
1093.519 1.007099
1094.002 0.8389420
1094.484 0.3000390
1094.966 2.6630000E-03
1095.448 0.3268040
1095.930 0.6441800
1096.412 0.8320870
1096.894 0.8608460
1097.376 0.5715350
1097.859 0.1991370
1098.341 5.3114001E-02
1098.823 0.1391850
1099.305 0.2527700
1099.787 0.3741970
1100.269 0.4775110
1100.751 0.5793490
1101.233 0.6068620
1101.715 0.5175550
1102.198 0.3411630
1102.680 1.5040000E-03
1103.162 0.4057550
1103.644 0.4871800
1104.126 6.9803998E-02
1104.608 0.2818080
1105.090 0.4901820
1105.572 0.5889010
1106.054 0.5169380
1106.537 0.4062090
1107.019 0.3477280
1107.501 0.3428670
1107.983 0.3531470
1108.465 0.3746340
1108.947 0.4182920
1109.429 0.5764070
1109.911 0.6262030
1110.394 0.4082620
1110.876 0.1892980
1111.358 0.1034960
1111.840 0.1301170
1112.322 0.2976260
1112.804 0.6222660
1113.286 0.6960970
1113.768 0.2626960
1114.250 5.3989999E-03
1114.733 6.3860998E-02
1115.215 0.1758650
1115.697 0.2269970
1116.179 0.2748230
1116.661 0.4149710
1117.143 0.6206680
1117.625 0.6816810
1118.107 0.4729210
1118.589 0.4357170
1119.072 0.7553580
1119.554 0.8558060
1120.036 0.3837520
1120.518 7.3370002E-02
1121.000 5.4483000E-02
1121.482 0.5334420
1121.964 0.6504630
1122.446 0.3150970
1122.929 0.1833180
1123.411 0.3318810
1123.893 0.4096750
1124.375 0.3069720
1124.857 0.2402700
1125.339 0.3793690
1125.821 0.5594560
1126.303 0.4567150
1126.786 0.1014640
1127.268 9.9078000E-02
1127.750 0.5030720
1128.232 0.7734680
1128.714 0.8306120
1129.196 0.8151860
1129.678 0.7846030
1130.160 0.7441070
1130.642 0.7070880
1131.125 0.6534900
1131.607 0.4754550
1132.089 0.1879480
1132.571 3.0406000E-02
1133.053 1.7214000E-02
1133.535 0.2200160
1134.017 0.6595950
1134.499 1.028054
1134.981 1.090071
1135.464 0.9203670
1135.946 0.5448780
1136.428 6.5825999E-02
1136.910 8.9340001E-02
1137.392 2.9864000E-02
1137.874 0.1887300
1138.356 0.3281920
1138.838 0.4002060
1139.321 0.3803510
1139.803 0.3109260
1140.285 0.1856850
1140.767 9.2790000E-02
1141.249 0.2889080
1141.731 0.6041650
1142.213 0.6370470
1142.695 0.4218820
1143.177 0.1999600
1143.660 5.9523001E-02
1144.142 1.4221000E-02
1144.624 0.1142610
1145.106 0.2192910
1145.588 0.1017560
1146.070 2.9545000E-02
1146.552 0.1673020
1147.034 0.5167880
1147.516 0.6461950
1147.999 0.5516100
1148.481 0.5466590
1148.963 0.7981130
1149.445 0.9386100
1149.927 0.5322990
1150.409 0.1832090
1150.891 0.5048970
1151.373 0.9645240
1151.856 0.8825520
1152.338 0.4589190
1152.820 0.3163010
1153.302 0.5853330
1153.784 0.7278960
1154.266 0.4125610
1154.748 0.1579260
1155.230 0.1300920
1155.713 0.2197710
1156.195 0.4863610
1156.677 0.7469750
1157.159 0.6903530
1157.641 0.3758100
1158.123 0.3217160
1158.605 0.8126320
1159.087 1.056510
1159.569 0.7711020
1160.052 0.5558220
1160.534 0.6417900
1161.016 0.7422010
1161.498 0.6852550
1161.980 0.5568110
1162.462 0.4404220
1162.944 0.3220860
1163.426 0.3149480
1163.908 0.4766580
1164.391 0.5698260
1164.873 0.5213210
1165.355 0.5347400
1165.837 0.7339020
1166.319 0.9587030
1166.801 0.9968310
1167.283 0.9288150
1167.765 1.182579
1168.247 1.784677
1168.730 1.793230
1169.212 1.149812
1169.694 0.5727810
1170.176 0.2549800
1170.658 0.2661320
1171.140 0.6957630
1171.622 1.189727
1172.104 1.128597
1172.587 0.6815560
1173.069 0.4109770
1173.551 0.3175050
1174.033 0.5038100
1174.515 0.8941250
1174.997 1.065896
1175.479 0.8971750
1175.961 0.6674180
1176.443 0.5807640
1176.926 0.6069320
1177.408 0.8476160
1177.890 1.074464
1178.372 0.8215410
1178.854 0.3498830
1179.336 0.2149690
1179.818 0.4285670
1180.300 0.5923930
1180.782 0.5360600
1181.265 0.4658160
1181.747 0.4752800
1182.229 0.5480950
1182.711 0.8036300
1183.193 1.005680
1183.675 0.8294490
1184.157 0.4748440
1184.639 0.3592220
1185.122 0.5262970
1185.604 0.6111880
1186.086 0.4210770
1186.568 0.3209890
1187.050 0.4470350
1187.532 0.5804710
1188.014 0.6946380
1188.496 0.7142830
1188.979 0.4506650
1189.461 7.4019000E-02
1189.943 0.1230960
1190.425 0.7157480
1190.907 1.026885
1191.389 0.9696110
1191.871 0.8653930
1192.353 0.7449060
1192.835 0.6353560
1193.318 0.5411230
1193.800 0.4978410
1194.282 0.5724470
1194.764 0.6959800
1195.246 0.7086760
1195.728 0.6102630
1196.210 0.4551780
1196.692 0.2579750
1197.174 0.2632420
1197.657 0.5222210
1198.139 0.8346030
1198.621 1.085851
1199.103 1.184734
1199.585 0.8919410
1200.067 0.4513640
1200.549 0.3944940
1201.031 0.5530690
1201.514 0.5222020
1201.996 0.3543920
1202.478 0.3820860
1202.960 0.6584260
1203.442 0.8496560
1203.924 0.7195630
1204.406 0.5693550
1204.888 0.7023920
1205.370 0.8291980
1205.853 0.6724410
1206.335 0.3772930
1206.817 2.4631999E-02
1207.299 0.2804800
1207.781 0.3155090
1208.263 2.4292000E-02
1208.745 0.2994280
1209.227 0.7412760
1209.709 0.9734210
1210.192 0.7500380
1210.674 0.5146650
1211.156 0.5163560
1211.638 0.5867790
1212.120 0.5470660
1212.602 0.4364250
1213.084 0.4073190
1213.566 0.4752110
1214.049 0.5547570
1214.531 0.6576850
1215.013 0.7296720
1215.495 0.7661310
1215.977 0.7201520
1216.459 0.5408120
1216.941 0.4189460
1217.423 0.6337560
1217.906 1.015196
1218.388 0.9736040
1218.870 0.6137770
1219.352 0.4802260
1219.834 0.5559970
1220.316 0.5800210
1220.798 0.5019350
1221.280 0.4475800
1221.762 0.4869120
1222.245 0.5121310
1222.727 0.3427760
1223.209 0.1750050
1223.691 0.2962070
1224.173 0.5120470
1224.655 0.5881250
1225.137 0.5412130
1225.619 0.3919630
1226.101 0.1929760
1226.584 0.1804470
1227.066 0.5411480
1227.548 0.7933150
1228.030 0.7578170
1228.512 0.6014680
1228.994 0.2085820
1229.476 9.6245997E-02
1229.958 8.8078000E-02
1230.441 0.4548430
1230.923 0.3861290
1231.405 9.6152000E-02
1231.887 0.1961380
1232.369 0.2822930
1232.851 0.5286250
1233.333 0.4447340
1233.815 0.3493250
1234.297 0.3270160
1234.780 0.3743230
1235.262 0.5030880
1235.744 0.6387150
1236.226 0.6313540
1236.708 0.5323080
1237.190 0.6216120
1237.672 0.8192370
1238.154 0.6487150
1238.636 0.1868520
1239.119 8.4463999E-02
1239.601 0.4697840
1240.083 0.7601440
1240.565 0.5665390
1241.047 0.2634010
1241.529 0.1039940
1242.011 0.1206030
1242.493 0.5136090
1242.975 0.9671770
1243.458 1.087816
1243.940 0.9587110
1244.422 0.7958770
1244.904 0.6485680
1245.386 0.5934380
1245.868 0.7075890
1246.350 0.7432710
1246.832 0.5995370
1247.315 0.5176630
1247.797 0.6813780
1248.279 0.8250930
1248.761 0.7165220
1249.243 0.5173730
1249.725 0.5593090
1250.207 0.8118890
1250.689 0.6718920
1251.172 6.9929004E-02
1251.654 0.1155820
1252.136 0.1972360
1252.618 0.4612280
1253.100 0.5121560
1253.582 0.5186870
1254.064 0.5973910
1254.546 0.6734980
1255.028 0.6129330
1255.510 0.4949220
1255.993 0.4587620
1256.475 0.4878560
1256.957 0.5973170
1257.439 0.7459120
1257.921 0.6522790
1258.403 0.3404060
1258.885 0.3044630
1259.367 0.8238770
1259.850 1.122791
1260.332 0.5865540
1260.814 8.0527999E-02
1261.296 7.9501003E-02
1261.778 0.1935850
1262.260 0.1013710
1262.742 5.3277999E-02
1263.224 2.0354001E-02
1263.707 0.2926770
1264.189 0.3839990
1264.671 0.2000850
1265.153 0.1568980
1265.635 0.2725770
1266.117 0.5098770
1266.599 0.9078340
1267.081 1.054056
1267.563 0.6886870
1268.046 0.2023440
1268.528 0.2218230
1269.010 0.4841330
1269.492 0.4264070
1269.974 0.2110070
1270.456 0.3063860
1270.938 0.5942710
1271.420 0.6516860
1271.902 0.4847330
1272.385 0.4654100
1272.867 0.7273530
1273.349 0.9083900
1273.831 0.6202660
1274.313 0.4042160
1274.795 0.5211670
1275.277 0.6678430
1275.759 0.6206070
1276.242 0.4985350
1276.724 0.4238670
1277.206 0.4013540
1277.688 0.4476860
1278.170 0.5866350
1278.652 0.5542880
1279.134 0.2852070
1279.616 8.6971000E-02
1280.099 1.5709000E-02
1280.581 1.1230001E-03
1281.063 0.1496410
1281.545 0.3290720
1282.027 0.4524240
1282.509 0.3906350
1282.991 0.2995230
1283.473 0.1263070
1283.955 0.0000000E+00
