#Shining_header
#Data type:raman_database
#CAS:Not entered
#Material scientific name:Phillipsite-Ca
#Manufacturer:Not entered
#Laser model:Not entered
#Spectrometer model:Not entered
#Testing unit:Not entered
#Test time:Not entered
#Other experimental details:Not entered
#Shining_data
152.7720 0.0000000E+00
153.2542 8.2855001E-02
153.7363 0.1402590
154.2184 0.1096800
154.7005 0.2400670
155.1826 0.7905270
155.6647 1.626129
156.1469 2.036377
156.6290 1.571640
157.1111 1.159424
157.5932 0.9457550
158.0753 1.026108
158.5574 1.245956
159.0396 1.395050
159.5217 1.598007
160.0038 1.703079
160.4859 1.532059
160.9680 1.579117
161.4501 1.916367
161.9323 2.462570
162.4144 3.034103
162.8965 3.587021
163.3786 3.740143
163.8607 3.713776
164.3428 4.053505
164.8250 4.436096
165.3071 4.521507
165.7892 4.121689
166.2713 3.511597
166.7534 3.323418
167.2355 3.597519
167.7177 3.530838
168.1998 2.715805
168.6819 1.625114
169.1640 0.9867780
169.6461 1.011566
170.1282 1.262672
170.6104 1.285385
171.0925 1.081490
171.5746 0.7909850
172.0567 0.3625260
172.5388 0.1318590
173.0209 0.4705730
173.5031 0.6382600
173.9852 0.5763170
174.4673 0.1830370
174.9494 0.5047840
175.4315 1.127769
175.9136 1.441269
176.3958 1.450974
176.8779 1.299736
177.3600 0.7015150
177.8421 0.2107320
178.3242 0.2364580
178.8063 0.7526170
179.2885 1.357979
179.7706 1.584579
180.2527 1.295227
180.7348 1.219406
181.2169 1.655418
181.6990 2.128860
182.1812 2.349426
182.6633 2.302124
183.1454 2.208298
183.6275 2.432899
184.1096 3.244904
184.5917 3.838348
185.0738 4.063637
185.5560 4.185074
186.0381 4.424309
186.5202 4.820358
187.0023 5.246880
187.4844 5.513466
187.9665 5.243690
188.4487 5.382957
188.9308 6.405815
189.4129 7.605003
189.8950 8.257469
190.3771 8.201019
190.8592 7.903473
191.3414 7.764366
191.8235 7.943314
192.3056 8.285660
192.7877 8.986115
193.2698 9.815742
193.7519 10.41889
194.2341 10.68163
194.7162 10.74850
195.1983 10.87227
195.6804 11.10442
196.1625 11.21988
196.6446 11.02546
197.1268 10.65054
197.6089 10.44322
198.0910 10.57951
198.5731 10.85236
199.0552 10.91764
199.5373 10.74651
200.0195 10.54256
200.5016 10.35705
200.9837 10.20824
201.4658 10.22588
201.9479 10.58670
202.4300 10.99038
202.9122 11.14453
203.3943 11.05807
203.8764 10.76398
204.3585 10.15513
204.8406 9.239639
205.3227 8.559288
205.8048 8.347435
206.2870 8.379730
206.7691 8.536057
207.2512 8.765671
207.7333 8.970634
208.2154 8.974754
208.6975 8.720108
209.1797 8.456688
209.6618 8.376839
210.1439 8.201981
210.6260 7.829788
211.1081 7.106468
211.5902 6.320465
212.0724 5.857559
212.5545 5.835220
213.0366 5.804718
213.5187 5.829109
214.0008 5.771683
214.4829 5.509743
214.9651 5.034607
215.4472 4.458939
215.9293 3.924942
216.4114 3.346840
216.8935 3.019966
217.3756 3.176392
217.8578 3.375389
218.3399 3.248260
218.8220 2.744888
219.3041 2.143608
219.7862 1.896927
220.2683 2.331711
220.7505 2.490944
221.2326 2.124550
221.7147 1.670578
222.1968 1.512733
222.6789 1.721939
223.1610 2.037193
223.6432 2.072594
224.1253 1.639862
224.6074 1.295967
225.0895 1.041000
225.5716 0.8752670
226.0537 0.8861620
226.5358 1.074265
227.0180 1.193954
227.5001 0.8350070
227.9822 0.2856370
228.4643 0.9313200
228.9464 0.7926860
229.4285 0.2575910
229.9107 0.3658370
230.3928 1.007370
230.8749 1.522209
231.3570 1.693848
231.8391 1.515327
232.3212 1.291534
232.8034 0.9331210
233.2855 0.5912250
233.7676 0.5334630
234.2497 0.8432240
234.7318 1.203568
235.2139 1.193230
235.6961 0.8618770
236.1782 0.6208880
236.6603 0.6025920
237.1424 0.7352600
237.6245 0.9576340
238.1066 1.307770
238.5888 1.568008
239.0709 1.423401
239.5530 1.000618
240.0351 0.6712720
240.5172 0.5605090
240.9993 0.6186520
241.4815 0.7762600
241.9636 1.056656
242.4457 1.379532
242.9278 1.758446
243.4099 2.138130
243.8920 2.376640
244.3742 2.323860
244.8563 2.103706
245.3384 2.006744
245.8205 2.078468
246.3026 2.169212
246.7847 2.204063
247.2668 2.199421
247.7490 2.190865
248.2311 2.223690
248.7132 2.248745
249.1953 2.126862
249.6774 1.794304
250.1595 1.441902
250.6417 1.049267
251.1238 0.7130010
251.6059 0.5964970
252.0880 0.8331380
252.5701 1.255066
253.0522 1.416245
253.5344 1.168186
254.0165 0.9458540
254.4986 0.9160800
254.9807 0.9652900
255.4628 0.9689290
255.9449 0.8721500
256.4271 0.7100450
256.9092 0.5598450
257.3913 0.4249690
257.8734 0.2971990
258.3555 0.1420780
258.8376 6.3319998E-03
259.3198 0.1032450
259.8019 0.1849670
260.2840 0.1587720
260.7661 0.2183300
261.2482 1.388107
261.7303 2.037159
262.2125 1.625385
262.6946 0.9521140
263.1767 0.7231940
263.6588 1.144848
264.1409 1.856594
264.6230 2.227535
265.1052 2.131554
265.5873 1.904430
266.0694 1.304337
266.5515 0.7693440
267.0336 0.6940990
267.5157 1.135380
267.9979 1.783543
268.4800 2.177753
268.9621 2.178871
269.4442 2.210464
269.9263 2.319138
270.4084 2.421680
270.8906 2.428146
271.3727 2.346550
271.8548 2.287361
272.3369 2.394825
272.8190 2.740166
273.3011 3.021347
273.7833 3.247955
274.2654 3.419418
274.7475 3.481236
275.2296 3.467796
275.7117 3.509247
276.1938 3.754810
276.6760 4.270977
277.1581 4.570690
277.6402 4.690975
278.1223 4.626713
278.6044 4.180542
279.0865 3.493599
279.5686 2.994259
280.0508 3.063114
280.5329 3.717628
281.0150 4.161942
281.4971 4.370972
281.9792 4.436363
282.4613 4.266041
282.9435 3.973679
283.4256 3.811058
283.9077 3.957176
284.3898 4.373226
284.8719 4.694004
285.3540 4.840137
285.8362 4.955845
286.3183 5.162285
286.8004 5.402103
287.2825 5.460335
287.7646 5.175468
288.2467 4.676891
288.7289 4.466393
289.2110 4.859276
289.6931 5.124092
290.1752 5.036800
290.6573 4.782837
291.1394 4.637787
291.6216 4.716652
292.1037 4.911297
292.5858 4.994991
293.0679 4.948006
293.5500 4.815842
294.0321 4.454884
294.5143 4.074558
294.9964 3.965816
295.4785 4.204338
295.9606 4.533951
296.4427 4.562748
296.9248 4.098537
297.4070 3.926842
297.8891 4.397804
298.3712 5.001026
298.8533 4.681529
299.3354 5.414074
299.8175 5.891823
300.2997 6.128489
300.7818 5.401844
301.2639 5.919065
301.7460 5.937810
302.2281 5.936106
302.7102 5.901859
303.1924 6.230297
303.6745 6.694565
304.1566 6.980255
304.6387 7.088108
305.1208 6.995407
305.6029 6.395821
306.0851 5.843662
306.5672 5.780952
307.0493 6.076664
307.5314 5.798607
308.0135 6.408348
308.4956 6.763285
308.9778 6.877115
309.4599 6.027666
309.9420 6.422082
310.4241 6.318016
310.9062 6.193506
311.3883 6.762993
311.8705 5.510463
312.3526 6.275314
312.8347 6.785364
313.3168 7.054315
313.7989 5.842030
314.2810 5.485008
314.7632 5.395592
315.2453 5.403088
315.7274 5.463028
316.2095 5.567085
316.6916 5.721481
317.1737 5.899120
317.6559 6.046829
318.1380 6.388039
318.6201 6.668938
319.1022 6.465595
319.5843 5.694759
320.0664 4.906391
320.5485 4.707058
321.0306 5.173054
321.5128 5.515713
321.9949 5.756485
322.4770 5.867020
322.9591 5.803749
323.4412 5.594398
323.9233 5.304741
324.4055 4.935295
324.8876 4.507797
325.3697 4.267868
325.8518 4.349628
326.3339 4.455971
326.8160 4.468643
327.2982 4.417824
327.7803 4.381962
328.2624 4.401539
328.7445 4.466125
329.2266 4.555759
329.7087 4.794594
330.1909 4.841480
330.6730 4.467384
331.1551 3.924809
331.6372 3.526764
332.1193 3.363850
332.6014 3.370750
333.0836 3.491814
333.5657 3.834560
334.0478 3.941971
334.5299 3.566811
335.0120 3.103638
335.4941 2.924782
335.9763 3.050179
336.4584 3.167660
336.9405 2.952000
337.4226 2.358002
337.9047 2.065033
338.3868 2.275444
338.8690 2.559391
339.3511 2.766197
339.8332 2.867596
340.3153 2.828541
340.7974 2.618874
341.2795 2.258488
341.7617 1.864735
342.2438 1.214249
342.7259 0.7973180
343.2080 0.8859250
343.6901 1.236931
344.1722 1.478546
344.6544 1.454609
345.1365 1.296997
345.6186 1.282043
346.1007 1.607685
346.5828 1.772991
347.0649 1.619892
347.5471 1.398655
348.0292 1.387527
348.5113 1.611546
348.9934 1.804802
349.4755 1.612427
349.9576 0.8599470
350.4398 0.4590640
350.9219 0.5481110
351.4040 0.7981640
351.8861 1.204231
352.3682 1.645988
352.8503 1.829571
353.3325 1.486065
353.8146 0.6693460
354.2967 0.2275810
354.7788 0.5430680
355.2609 0.7912710
355.7430 0.7866740
356.2252 0.6179960
356.7073 0.4108390
357.1894 0.2226750
357.6715 4.7885999E-02
358.1536 0.1261830
358.6357 0.2861440
359.1179 0.4740640
359.5999 0.8410030
360.0821 1.141956
360.5642 1.104351
361.0463 0.7117310
361.5284 0.2452130
362.0105 8.4881000E-02
362.4926 0.3690870
362.9748 0.4182660
363.4569 0.1661110
363.9390 0.6004940
364.4211 0.4081540
364.9032 0.2460020
365.3853 0.8686710
365.8675 1.087650
366.3496 0.9401740
366.8317 0.7663120
367.3138 0.4060630
367.7959 0.2330170
368.2780 0.4714620
368.7602 0.8826070
369.2423 1.196217
369.7244 1.297691
370.2065 1.216320
370.6886 0.9755100
371.1707 0.4849590
371.6529 6.3541003E-02
372.1350 0.3855670
372.6171 0.6584550
373.0992 0.4826050
373.5813 0.1154820
374.0634 0.7005200
374.5456 0.6982960
375.0277 6.2820002E-02
375.5098 0.1221770
375.9919 0.7532310
376.4740 1.435440
376.9561 1.137245
377.4383 0.2076030
377.9204 0.5192950
378.4025 0.5084990
378.8846 1.0750000E-02
379.3667 0.2763370
379.8488 0.2710490
380.3310 0.2679060
380.8131 0.4967690
381.2952 0.7403030
381.7773 0.7200890
382.2594 0.3162730
382.7415 0.1243670
383.2237 0.1562390
383.7058 0.2158360
384.1879 0.4521680
384.6700 0.4281960
385.1521 0.2060090
385.6342 0.2511140
386.1164 0.9094200
386.5985 1.375675
387.0806 1.147831
387.5627 0.5950160
388.0448 0.7084240
388.5269 1.747936
389.0091 2.836231
389.4912 3.321636
389.9733 3.375061
390.4554 3.318489
390.9375 3.105740
391.4196 2.909069
391.9018 2.877682
392.3839 3.002327
392.8660 3.225494
393.3481 3.555691
393.8302 3.945568
394.3123 4.327221
394.7945 4.753704
395.2766 5.011433
395.7587 4.846333
396.2408 4.503345
396.7229 4.425961
397.2050 4.728527
397.6872 5.138691
398.1693 5.330357
398.6514 5.273239
399.1335 5.423721
399.6156 6.004253
400.0977 6.631771
400.5798 7.059650
401.0620 7.303970
401.5441 7.424374
402.0262 7.402237
402.5083 7.309208
402.9904 7.540180
403.4725 8.530136
403.9547 9.261841
404.4368 9.304958
404.9189 9.072853
405.4010 9.109360
405.8831 9.577175
406.3652 10.21843
406.8474 10.64477
407.3295 10.72182
407.8116 10.95418
408.2937 11.50431
408.7758 12.05160
409.2579 12.35262
409.7401 12.47044
410.2222 12.67497
410.7043 13.19875
411.1864 13.97522
411.6685 14.44464
412.1506 14.26350
412.6328 14.19489
413.1149 14.41689
413.5970 14.75539
414.0791 15.00671
414.5612 15.10242
415.0433 15.14820
415.5255 15.30342
416.0076 15.58178
416.4897 15.92435
416.9718 16.58002
417.4539 17.06529
417.9360 17.06097
418.4182 16.68306
418.9003 16.30545
419.3824 16.13516
419.8645 16.15902
420.3466 16.43606
420.8287 17.18655
421.3109 17.80511
421.7930 17.93999
422.2751 17.80569
422.7572 17.59736
423.2393 17.36433
423.7214 17.10879
424.2036 16.83891
424.6857 16.55564
425.1678 16.23011
425.6499 15.77389
426.1320 15.32425
426.6141 15.04054
427.0963 14.90520
427.5784 14.74862
428.0605 14.48418
428.5426 14.18268
429.0247 13.92437
429.5068 13.70021
429.9890 13.58884
430.4711 13.71125
430.9532 13.97046
431.4353 14.02513
431.9174 13.60701
432.3995 13.35794
432.8817 13.91774
433.3638 14.84051
433.8459 15.07894
434.3280 14.24653
434.8101 13.15321
435.2922 12.89812
435.7744 13.68302
436.2565 14.33922
436.7386 14.69324
437.2207 15.00732
437.7028 15.49386
438.1849 16.12916
438.6671 16.74040
439.1492 17.20251
439.6313 17.57111
440.1134 18.11121
440.5955 18.99294
441.0776 19.81454
441.5598 20.50605
442.0418 21.12174
442.5240 21.66862
443.0061 22.17339
443.4882 22.76289
443.9703 23.60471
444.4524 24.74136
444.9345 25.94524
445.4167 27.31005
445.8988 28.64792
446.3809 29.79598
446.8630 30.86800
447.3451 32.13295
447.8272 33.77414
448.3094 35.59334
448.7915 37.01600
449.2736 37.79829
449.7557 38.87874
450.2378 40.79052
450.7199 42.88975
451.2021 44.68573
451.6842 46.13939
452.1663 47.64207
452.6484 49.61597
453.1305 51.92548
453.6126 53.87568
454.0948 55.28346
454.5769 56.64814
455.0590 58.31572
455.5411 60.17283
456.0232 62.03757
456.5053 63.81822
456.9875 65.65662
457.4696 67.72002
457.9517 69.96005
458.4338 72.18461
458.9159 74.31639
459.3980 76.44013
459.8802 78.77570
460.3623 81.38123
460.8444 83.65134
461.3265 85.23571
461.8086 86.59456
462.2907 88.02147
462.7729 89.58472
463.2550 91.46770
463.7371 93.89936
464.2192 96.70193
464.7013 98.91406
465.1834 99.88756
465.6656 101.1388
466.1477 103.1893
466.6298 105.4826
467.1119 107.4694
467.5940 109.0065
468.0761 110.1792
468.5583 111.0592
469.0404 111.6084
469.5225 112.1496
470.0046 112.5195
470.4867 113.0552
470.9688 113.9744
471.4510 115.1052
471.9331 116.1893
472.4152 117.1139
472.8973 117.8725
473.3794 118.4685
473.8615 118.9237
474.3437 119.1184
474.8258 118.8738
475.3079 118.4703
475.7900 118.0742
476.2721 117.6832
476.7542 117.2038
477.2364 116.4158
477.7185 115.5493
478.2006 115.2261
478.6827 115.5960
479.1648 115.6370
479.6469 114.6495
480.1291 113.0582
480.6112 111.7065
481.0933 110.7919
481.5754 109.6802
482.0575 107.7479
482.5396 105.4630
483.0217 103.7811
483.5038 102.9151
483.9860 102.1662
484.4681 100.8875
484.9502 99.05404
485.4323 97.09563
485.9144 95.04177
486.3965 92.83571
486.8787 90.43605
487.3608 87.85747
487.8429 85.04548
488.3250 81.97008
488.8071 78.90250
489.2892 76.40100
489.7714 74.82034
490.2535 72.92165
490.7356 70.63165
491.2177 68.20105
491.6998 65.66257
492.1819 63.06323
492.6641 60.49170
493.1462 58.01236
493.6283 55.60568
494.1104 53.21811
494.5925 50.86609
495.0746 48.52469
495.5568 46.13337
496.0389 43.79044
496.5210 41.51590
497.0031 39.32406
497.4852 37.29024
497.9673 35.59917
498.4495 34.14295
498.9316 32.56335
499.4137 30.80130
499.8958 29.15619
500.3779 27.91907
500.8600 26.84008
501.3422 25.39823
501.8243 23.36903
502.3064 21.41339
502.7885 19.87650
503.2706 18.61301
503.7527 17.30442
504.2349 15.90822
504.7170 14.66582
505.1991 13.83802
505.6812 13.41527
506.1633 12.72652
506.6454 11.48386
507.1276 10.39059
507.6097 9.814434
508.0918 9.526089
508.5739 9.165890
509.0560 8.627934
509.5381 8.008606
510.0203 7.472069
510.5024 7.063034
510.9845 6.585552
511.4666 5.804531
511.9487 5.202232
512.4308 5.119133
512.9130 5.334545
513.3951 5.395184
513.8772 5.050720
514.3593 4.532684
514.8414 4.300644
515.3235 4.393837
515.8057 4.306595
516.2878 3.837120
516.7699 3.291828
517.2520 2.876442
517.7341 2.593300
518.2162 2.458065
518.6984 2.564404
519.1805 2.734440
519.6626 2.780853
520.1447 2.722965
520.6268 2.626438
521.1089 2.522804
521.5911 2.399837
522.0732 2.184368
522.5553 1.736492
523.0374 1.574257
523.5195 2.082264
524.0016 2.697571
524.4838 2.953148
524.9659 2.832863
525.4480 2.531685
525.9301 2.159016
526.4122 1.739193
526.8943 1.529629
527.3765 1.830132
527.8586 1.973099
528.3407 1.801243
528.8228 1.492012
529.3049 1.127533
529.7870 0.7745440
530.2692 0.5838430
530.7513 0.7553180
531.2334 1.212746
531.7155 1.488895
532.1976 1.527504
532.6797 1.496323
533.1619 1.586540
533.6440 1.590878
534.1261 1.139038
534.6082 8.2909003E-02
535.0903 0.7094150
535.5724 0.4112090
536.0546 0.5018840
536.5367 1.020279
537.0188 1.009354
537.5009 0.7460060
537.9830 0.3282050
538.4651 0.1724280
538.9473 0.3721350
539.4294 2.8343000E-02
539.9115 0.2871170
540.3936 0.4512980
540.8757 0.4710010
541.3578 0.3089560
541.8400 8.9339996E-03
542.3221 0.3088720
542.8042 0.4116780
543.2863 0.3201100
543.7684 0.2449870
544.2505 0.1450080
544.7326 0.1096190
545.2147 0.2718770
545.6968 0.4453810
546.1790 0.3402210
546.6611 8.3274998E-02
547.1432 0.4353830
547.6253 0.1588440
548.1074 0.6676330
548.5895 1.080458
549.0717 0.8820590
549.5538 0.6136630
550.0359 0.5892790
550.5180 0.7038170
551.0001 0.8085750
551.4822 0.8636460
551.9644 0.9447290
552.4465 1.215303
552.9286 1.526894
553.4107 1.542341
553.8928 1.192743
554.3749 0.6949540
554.8571 0.1927320
555.3392 0.3072740
555.8213 0.5504490
556.3034 0.4319020
556.7855 0.2273810
557.2676 0.1166170
557.7498 0.4542470
558.2319 0.5643940
558.7140 0.4228820
559.1961 0.2556340
559.6782 0.3536910
560.1603 0.7222940
560.6425 0.7736610
561.1246 0.1570930
561.6067 0.2581710
562.0888 5.7289001E-02
562.5709 0.5641670
563.0530 0.5609420
563.5352 0.1379800
564.0173 0.8320850
564.4994 0.7646100
564.9815 0.2051050
565.4636 0.1240390
565.9457 0.7110200
566.4279 1.248087
566.9100 1.187555
567.3921 0.7060530
567.8742 0.4800610
568.3563 0.6883850
568.8384 0.8517950
569.3206 0.7368680
569.8027 0.5244620
570.2848 0.4723630
570.7669 0.5962070
571.2490 0.6633470
571.7311 0.4436420
572.2133 1.7759001E-02
572.6954 0.2032870
573.1775 0.2244000
573.6596 0.4656370
574.1417 0.2632050
574.6238 5.4441001E-02
575.1060 0.2659130
575.5881 0.3107810
576.0702 0.1465680
576.5523 0.4031410
577.0344 1.179119
577.5165 1.558760
577.9987 1.474169
578.4808 1.281906
578.9629 1.034031
579.4450 0.8263070
579.9271 0.7805960
580.4092 0.9071560
580.8914 1.136089
581.3735 1.703114
581.8556 2.195623
582.3377 1.965132
582.8198 1.123711
583.3019 0.5129530
583.7841 0.6577530
584.2662 1.257275
584.7483 1.471170
585.2304 0.8348460
585.7125 0.5793250
586.1946 0.9542750
586.6768 1.462370
587.1589 1.900246
587.6410 2.205940
588.1231 2.297991
588.6052 2.090286
589.0873 1.762905
589.5695 1.737621
590.0516 2.072031
590.5337 2.274797
591.0158 2.113453
591.4979 1.959717
591.9800 2.228333
592.4622 2.790249
592.9443 3.094328
593.4264 2.791107
593.9085 2.376945
594.3906 2.229536
594.8727 2.292913
595.3549 2.463778
595.8370 2.723524
596.3191 2.899422
596.8012 2.734495
597.2833 2.144957
597.7654 1.892572
598.2476 2.312799
598.7297 2.628035
599.2118 2.429144
599.6939 2.059477
600.1760 2.006657
600.6581 2.398003
601.1403 2.901337
601.6224 3.167940
602.1045 3.202965
602.5866 3.048779
603.0687 2.545696
603.5508 2.191292
604.0330 2.374680
604.5151 2.812334
604.9972 3.162550
605.4793 3.395798
605.9614 3.498337
606.4435 3.398886
606.9257 3.248777
607.4078 3.246189
607.8899 3.376799
608.3720 3.436192
608.8541 3.280624
609.3362 3.009005
609.8184 3.001432
610.3005 3.657310
610.7826 3.959038
611.2647 3.741880
611.7468 3.386826
612.2289 3.079084
612.7111 2.854170
613.1932 2.625641
613.6753 2.329136
614.1574 2.138111
614.6395 2.533754
615.1216 3.580030
615.6038 4.104206
616.0859 3.701324
616.5680 3.050913
617.0501 2.588814
617.5322 2.302744
618.0143 2.238131
618.4965 2.636854
618.9786 3.087135
619.4607 3.304945
619.9428 3.328976
620.4249 3.253386
620.9070 3.149223
621.3892 3.155819
621.8713 3.394686
622.3534 3.841957
622.8355 3.932474
623.3176 3.296648
623.7997 2.823935
624.2819 2.667059
624.7640 2.674875
625.2461 2.765846
625.7282 2.893955
626.2103 2.968025
626.6924 2.846445
627.1745 2.630993
627.6566 2.597958
628.1387 2.763542
628.6208 2.878939
629.1030 2.790344
629.5851 2.665474
630.0672 2.837669
630.5493 3.345362
631.0314 3.625711
631.5135 3.357056
631.9957 3.012270
632.4778 2.836178
632.9599 2.828333
633.4420 3.032253
633.9241 3.456896
634.4063 3.843357
634.8884 3.721209
635.3705 2.968767
635.8526 2.551905
636.3347 2.652864
636.8168 2.805922
637.2990 2.902966
637.7811 2.953064
638.2632 2.993658
638.7453 3.013802
639.2274 2.953306
639.7095 2.678635
640.1917 2.322807
640.6738 2.122181
641.1559 2.077068
641.6380 2.114563
642.1201 2.206049
642.6022 2.321630
643.0844 2.408670
643.5665 2.502693
644.0486 2.531771
644.5307 2.449711
645.0128 2.340729
645.4949 2.221882
645.9771 2.112761
646.4592 2.050753
646.9413 2.052010
647.4234 2.068552
647.9055 1.981873
648.3876 1.796883
648.8698 1.872953
649.3519 2.415684
649.8340 2.810675
650.3161 2.485243
650.7982 1.794273
651.2803 1.472185
651.7625 1.707653
652.2446 1.947119
652.7267 2.016773
653.2088 1.959400
653.6909 1.752806
654.1730 1.444826
654.6552 1.207253
655.1373 1.143559
655.6194 1.204983
656.1015 1.288216
656.5836 1.433346
657.0657 1.480013
657.5479 1.273771
658.0300 1.105536
658.5121 1.143728
658.9942 1.308212
659.4763 1.446445
659.9584 1.525118
660.4406 1.507065
660.9227 1.239479
661.4048 0.8591590
661.8869 0.7967990
662.3690 1.121647
662.8511 1.398611
663.3333 1.293015
663.8154 0.9152200
664.2975 0.7329810
664.7796 1.079802
665.2617 1.149382
665.7438 0.5246220
666.2260 3.6708999E-02
666.7081 0.1132550
667.1902 0.7634370
667.6723 1.288486
668.1544 1.372948
668.6365 1.154472
669.1187 0.7160420
669.6008 8.0761001E-02
670.0829 0.1771660
670.5650 0.1192150
671.0471 0.5437760
671.5292 0.8021340
672.0114 0.9398960
672.4935 1.152712
672.9756 1.695734
673.4577 1.869726
673.9398 0.3574200
674.4219 1.304865
674.9041 1.819788
675.3862 1.925129
675.8683 0.3982750
676.3504 0.9812970
676.8325 0.7196350
677.3146 0.4232860
677.7968 1.302975
678.2789 1.5769999E-02
678.7610 0.8771290
679.2431 0.8808770
679.7252 1.173731
680.2073 1.624632
680.6895 1.751278
681.1716 1.373806
681.6537 0.9488490
682.1358 0.7499200
682.6179 0.6579040
683.1000 0.4845540
683.5822 0.2253340
684.0643 2.2489999E-03
684.5464 0.1081830
685.0285 0.1202640
685.5106 5.9762999E-02
685.9927 0.1531790
686.4749 0.2508950
686.9570 7.2788000E-02
687.4391 7.1947001E-02
687.9212 2.2280000E-03
688.4033 0.1943130
688.8854 0.2890740
689.3676 0.1866740
689.8497 0.1192950
690.3318 0.4011250
690.8139 0.8300530
691.2960 0.9423560
691.7781 0.6975900
692.2603 0.3525090
692.7424 2.1101000E-02
693.2245 0.2358000
693.7066 0.2405760
694.1887 0.2821310
694.6708 0.4961780
695.1530 7.2567001E-02
695.6351 0.2983210
696.1172 0.1852570
696.5993 0.1825450
697.0814 0.3374710
697.5635 0.1035100
698.0457 0.1170860
698.5278 0.2369330
699.0099 0.9279080
699.4920 1.118473
699.9741 0.7206250
700.4562 0.3229920
700.9384 0.2304780
701.4205 0.3295540
701.9026 0.3812430
702.3847 0.3335400
702.8668 0.3836400
703.3489 0.7399790
703.8311 0.9811190
704.3132 0.8004800
704.7953 0.3999230
705.2774 6.5874003E-02
705.7595 9.9958003E-02
706.2416 9.2712000E-02
706.7238 0.2421530
707.2059 0.7760850
707.6880 0.8353580
708.1701 0.3232020
708.6522 4.2263001E-02
709.1343 0.4575480
709.6164 1.119640
710.0985 1.276661
710.5806 0.8336930
711.0627 0.6140230
711.5449 0.8952390
712.0270 1.167896
712.5091 1.196814
712.9912 1.064257
713.4733 0.8411050
713.9554 0.5743520
714.4376 0.4110720
714.9197 0.5484790
715.4018 0.8836360
715.8839 0.9883330
716.3660 0.8271620
716.8481 0.6848300
717.3303 0.6083110
717.8124 0.6407260
718.2945 0.9142880
718.7766 1.402374
719.2587 1.707541
719.7408 1.715342
720.2230 1.631052
720.7051 1.491014
721.1872 1.326084
721.6693 1.132425
722.1514 0.9352510
722.6335 0.8629470
723.1157 1.082788
723.5978 0.4576000
724.0799 1.408737
724.5620 1.935625
725.0441 2.060390
725.5262 0.5530590
726.0084 1.153599
726.4905 0.9095020
726.9726 0.6307130
727.4547 1.522316
727.9368 1.624220
728.4189 1.898939
728.9011 1.767792
729.3832 1.468977
729.8653 1.125305
730.3474 0.8232920
730.8295 0.7610000
731.3116 1.070614
731.7938 1.480160
732.2759 1.439150
732.7580 0.9363480
733.2401 0.7506260
733.7222 1.068375
734.2043 1.378345
734.6865 1.398432
735.1686 1.204260
735.6507 0.9499300
736.1328 0.5764520
736.6149 0.3412510
737.0970 0.3722920
737.5792 0.4794370
738.0613 0.5426900
738.5434 0.5785120
739.0255 0.6431730
739.5076 0.7555710
739.9897 0.8805850
740.4719 0.9649180
740.9540 1.020462
741.4361 1.173065
741.9182 1.470720
742.4003 1.597464
742.8824 1.331999
743.3646 0.9627300
743.8467 0.8880900
744.3288 1.107666
744.8109 1.245258
745.2930 1.035929
745.7751 1.014023
746.2573 1.763247
746.7394 2.606279
747.2215 2.573215
747.7036 1.674362
748.1857 0.8427390
748.6678 0.8165510
749.1500 1.252516
749.6321 1.403212
750.1142 1.255764
750.5963 1.074232
751.0784 0.8579880
751.5605 0.7712820
752.0427 0.9939370
752.5248 1.461023
753.0069 1.844471
753.4890 2.162256
753.9711 2.363989
754.4532 2.469601
754.9354 2.423979
755.4175 2.023367
755.8996 1.465195
756.3817 1.213083
756.8638 1.471018
757.3459 1.888868
757.8281 1.982822
758.3102 1.833017
758.7923 1.846325
759.2744 2.056744
759.7565 2.214577
760.2386 2.179060
760.7208 2.064522
761.2029 2.068670
761.6850 2.237701
762.1671 2.344538
762.6492 2.303036
763.1313 2.307125
763.6135 2.576574
764.0956 2.827990
764.5777 2.648087
765.0598 2.045691
765.5419 1.538774
766.0240 1.428680
766.5062 1.633661
766.9883 2.245089
767.4704 3.108700
767.9525 3.539696
768.4346 3.369398
768.9167 2.896267
769.3989 2.310324
769.8810 1.685883
770.3631 1.531727
770.8452 2.272461
771.3273 2.710220
771.8094 2.572104
772.2916 2.310091
772.7737 2.133175
773.2558 2.015448
773.7379 1.854996
774.2200 1.594290
774.7021 1.416161
775.1843 1.543667
775.6664 1.765688
776.1485 1.776760
776.6306 1.599522
777.1127 1.432159
777.5948 1.363146
778.0770 1.310984
778.5591 1.130735
779.0412 0.8110030
779.5233 0.6630020
780.0054 0.7446710
780.4875 0.8969940
780.9697 1.131641
781.4518 1.366976
781.9339 1.534668
782.4160 1.634060
782.8981 1.661373
783.3802 1.622234
783.8624 1.503735
784.3445 1.183445
784.8266 0.8427410
785.3087 0.7842710
785.7908 0.9771460
786.2729 1.066021
786.7551 0.7864400
787.2372 0.3834400
787.7193 0.4161110
788.2014 0.8776300
788.6835 1.175720
789.1656 1.237692
789.6478 1.146408
790.1299 0.8413830
790.6120 0.4836500
791.0941 0.5023750
791.5762 1.074293
792.0583 1.471706
792.5404 1.576077
793.0225 1.585665
793.5046 1.569996
793.9868 1.527769
794.4689 1.423525
794.9510 1.262459
795.4331 1.140854
795.9152 1.216917
796.3973 1.316875
796.8795 1.079405
797.3616 0.5834010
797.8437 0.2304130
798.3258 0.1205750
798.8079 9.1012999E-02
799.2900 3.0695001E-02
799.7722 0.1772170
800.2543 6.6956997E-02
800.7364 1.076160
801.2185 1.711189
801.7006 1.671148
802.1827 1.446941
802.6649 1.190575
803.1470 0.9243430
803.6291 0.6460250
804.1112 0.3259090
804.5933 0.1560170
805.0754 0.4549350
805.5576 0.7760890
806.0397 0.5596920
806.5218 6.6950000E-03
807.0039 0.3361950
807.4860 0.2869930
807.9681 9.8410003E-02
808.4503 3.7268002E-02
808.9324 8.1336997E-02
809.4145 0.1506180
809.8966 0.2804150
810.3787 0.1883180
810.8608 0.3103010
811.3430 0.8410590
811.8251 1.069853
812.3072 1.026888
812.7893 0.9610810
813.2714 0.9827800
813.7535 0.8191590
814.2357 0.1185460
814.7178 0.4911250
815.1999 0.4598370
815.6820 2.2049000E-02
816.1641 0.3024690
816.6462 0.3326490
817.1284 0.2456420
817.6105 6.7221001E-02
818.0926 6.1888002E-02
818.5747 0.2926330
819.0568 1.024361
819.5389 1.387909
820.0211 1.109745
820.5032 0.5764640
820.9853 0.1931550
821.4674 3.6051001E-02
821.9495 1.9329000E-02
822.4316 0.4070990
822.9138 0.7199760
823.3959 0.7159330
823.8780 0.6849270
824.3601 0.8683590
824.8422 1.169113
825.3243 1.331636
825.8065 1.309866
826.2886 1.154451
826.7707 0.6961630
827.2528 0.2703930
827.7349 0.2370740
828.2170 0.4692960
828.6992 0.6578690
829.1813 0.6912330
829.6634 0.6416380
830.1455 0.5304370
830.6276 0.4108980
831.1097 0.5193980
831.5919 0.8498060
832.0740 1.043461
832.5561 0.9775200
833.0382 0.8360370
833.5203 0.8017230
834.0024 0.8498310
834.4846 0.7847900
834.9667 0.5093020
835.4488 0.2799240
835.9309 4.8351001E-02
836.4130 0.1693630
836.8951 0.2859100
837.3773 0.9913250
837.8594 1.349064
838.3415 1.199244
838.8236 0.9712920
839.3057 0.7969360
839.7878 0.7293720
840.2700 0.9085830
840.7521 1.196213
841.2342 1.264250
841.7163 1.063711
842.1984 0.9566610
842.6805 1.353674
843.1627 1.982540
843.6448 1.886065
844.1269 1.035112
844.6090 0.6273160
845.0911 0.9860500
845.5732 1.387491
846.0554 1.303865
846.5375 0.9214270
847.0196 0.7781350
847.5017 1.085295
847.9838 1.134264
848.4659 0.5601290
848.9481 0.1607340
849.4302 0.3800220
849.9123 0.8593080
850.3944 1.194218
850.8765 1.322815
851.3586 1.347246
851.8408 1.196831
852.3229 1.083307
852.8050 1.281786
853.2871 1.600409
853.7692 1.665600
854.2513 1.470316
854.7335 1.306425
855.2156 1.355528
855.6977 1.556757
856.1798 1.904459
856.6619 2.383165
857.1440 2.343206
857.6262 1.613857
858.1083 1.106119
858.5904 1.304770
859.0725 1.753551
859.5546 1.803251
860.0367 1.408348
860.5189 1.154284
861.0010 1.094336
861.4831 1.100777
861.9652 1.213352
862.4473 1.329046
862.9294 1.310452
863.4116 1.235548
863.8937 1.360369
864.3758 1.863150
864.8579 2.219934
865.3400 1.973717
865.8221 1.537844
866.3043 1.297424
866.7864 1.272488
867.2685 1.476120
867.7506 1.887705
868.2327 2.330769
868.7148 2.689108
869.1970 2.878891
869.6791 2.476191
870.1612 1.482527
870.6433 0.8210700
871.1254 0.7258190
871.6075 0.7935560
872.0897 0.7156850
872.5718 0.5483420
873.0539 0.5481090
873.5360 0.7621120
874.0181 1.072250
874.5002 1.824944
874.9823 2.292622
875.4644 1.990566
875.9465 1.385603
876.4286 0.9819980
876.9108 0.8310360
877.3929 0.7760850
877.8750 0.7350770
878.3571 0.8245530
878.8392 1.351175
879.3214 1.928850
879.8035 1.903246
880.2856 1.384754
880.7677 1.016472
881.2498 1.122334
881.7319 1.318863
882.2141 1.002848
882.6962 0.4269560
883.1783 0.4164510
883.6604 0.9506240
884.1425 1.355358
884.6246 1.390369
885.1068 1.204370
885.5889 0.9284900
886.0710 0.5884780
886.5531 0.3894060
887.0352 0.3826290
887.5173 0.3989090
887.9995 0.3007530
888.4816 0.3658660
888.9637 0.9707910
889.4458 1.798664
889.9279 2.203354
890.4100 2.089300
890.8922 1.897987
891.3743 1.618849
891.8564 1.360353
892.3385 1.174225
892.8206 1.037928
893.3027 0.9276100
893.7849 0.8504890
894.2670 0.8220980
894.7491 0.9071580
895.2312 0.9557440
895.7133 0.8105220
896.1954 0.5287020
896.6776 0.2476020
897.1597 2.4378000E-02
897.6418 4.0745001E-02
898.1239 0.1031630
898.6060 0.3049320
899.0881 0.3649100
899.5703 0.3271390
900.0524 0.3795360
900.5345 0.5301460
901.0166 0.6093010
901.4987 0.5624290
901.9808 0.4860170
902.4630 0.4665890
902.9451 0.4872320
903.4272 0.4440540
903.9093 0.2250230
904.3914 0.2055340
904.8735 0.5978890
905.3557 0.9285200
905.8378 1.051680
906.3199 1.033413
906.8020 0.8982830
907.2841 0.6693630
907.7662 0.5231320
908.2484 0.4439750
908.7305 0.4748060
909.2126 0.8633610
909.6947 1.236448
910.1768 1.137817
910.6589 0.7379510
911.1411 0.5457320
911.6232 0.7562680
912.1053 1.019648
912.5874 1.047035
913.0695 0.9317800
913.5516 0.7358110
914.0338 0.5266930
914.5159 0.5318890
914.9980 0.7841870
915.4801 1.056028
915.9622 1.180208
916.4443 1.170891
916.9265 1.030825
917.4086 0.7602940
917.8907 0.5375210
918.3728 0.3695090
918.8549 0.2673680
919.3370 0.2227860
919.8192 0.2822230
920.3013 0.5600090
920.7834 1.070734
921.2655 1.253330
921.7476 0.8658160
922.2297 0.5686970
922.7119 0.5096650
923.1940 0.5086960
923.6761 0.4822180
924.1582 0.4366050
924.6403 0.3921430
925.1224 0.3574030
925.6046 0.2935890
926.0867 9.4006002E-02
926.5688 2.7088000E-02
927.0509 0.1379320
927.5330 0.3848040
928.0151 0.4352800
928.4973 0.3086720
928.9794 0.2644520
929.4615 0.4579850
929.9436 0.6898400
930.4257 0.8785650
930.9078 0.9426900
931.3900 0.6116890
931.8721 4.7850002E-02
932.3542 0.1801800
932.8363 9.7274996E-02
933.3184 0.4512210
933.8005 0.4206520
934.2827 0.1922250
934.7648 0.3893240
935.2469 0.9305630
935.7290 0.8899940
936.2111 8.6199000E-02
936.6932 0.4706360
937.1754 0.1373770
937.6575 0.6196170
938.1396 0.9551470
938.6217 0.8427390
939.1038 0.5991210
939.5859 7.9209998E-02
940.0681 0.1679270
940.5502 0.1571250
941.0323 0.5711690
941.5144 0.6547760
941.9965 0.5033040
942.4786 0.5093210
942.9608 0.8518370
943.4429 0.9226930
943.9250 0.3841710
944.4071 6.2415998E-02
944.8892 9.0411998E-02
945.3713 9.3855001E-02
945.8535 0.2466320
946.3356 0.3606130
946.8177 0.5899010
947.2998 1.203859
947.7819 1.608053
948.2640 1.384743
948.7462 0.9306180
949.2283 0.4540580
949.7104 9.0281002E-02
950.1925 0.1015970
950.6746 0.5342100
951.1567 0.9292950
951.6389 0.9363670
952.1210 0.7087270
952.6031 0.1871050
953.0852 0.3416400
953.5673 1.3704000E-02
954.0494 1.141865
954.5316 1.744026
955.0137 1.098198
955.4958 7.5746998E-02
955.9779 3.7569001E-02
956.4600 0.7417600
956.9421 0.9717670
957.4242 0.7398800
957.9063 0.4358670
958.3884 0.1427880
958.8705 1.7448001E-02
959.3527 6.0051002E-02
959.8348 0.3325310
960.3169 0.7388630
960.7990 1.381971
961.2811 1.579157
961.7632 1.188280
962.2454 0.6929820
962.7275 0.1762240
963.2096 0.2262610
963.6917 0.3174710
964.1738 0.1307580
964.6559 4.1320998E-02
965.1381 0.2231120
965.6202 0.2204340
966.1023 0.1790520
966.5844 0.5343970
967.0665 0.6028350
967.5486 0.5459500
968.0308 0.6021290
968.5129 0.7846970
968.9950 0.8787100
969.4771 0.7471030
969.9592 0.6473430
970.4413 0.6606560
970.9235 0.7438790
971.4056 0.9685780
971.8877 1.202154
972.3698 1.140915
972.8519 0.7031040
973.3340 0.3549690
973.8162 0.4944290
974.2983 0.6904130
974.7804 0.4820940
975.2625 0.1694850
975.7446 0.2759610
976.2267 0.7181070
976.7089 0.9479160
977.1910 0.6942690
977.6731 0.4273870
978.1552 0.7391870
978.6373 1.300200
979.1194 1.619032
979.6016 1.685015
980.0837 1.372721
980.5658 0.7357850
981.0479 0.3351420
981.5300 0.5717950
982.0121 1.110138
982.4943 1.387901
982.9764 1.437618
983.4585 1.443146
983.9406 1.404854
984.4227 1.256624
984.9048 0.9791410
985.3870 0.7895790
985.8691 0.9136830
986.3512 1.209497
986.8333 1.185953
987.3154 0.7902200
987.7975 0.5547560
988.2797 0.5164180
988.7618 0.6191980
989.2439 0.9228170
989.7260 1.179489
990.2081 1.085304
990.6902 0.7162760
991.1724 0.4987740
991.6545 0.4631880
992.1366 0.4715190
992.6187 0.5479980
993.1008 0.6464810
993.5829 0.7772660
994.0651 0.8791390
994.5472 0.8951970
995.0293 0.8860570
995.5114 0.8738520
995.9935 0.8054620
996.4756 0.7510150
996.9578 0.8108860
997.4399 0.7782800
997.9220 0.4698910
998.4041 6.0178999E-02
998.8862 0.3083110
999.3683 0.6281890
999.8505 0.6115970
1000.333 0.1912190
1000.815 0.8492570
1001.297 0.8427850
1001.779 0.7028100
1002.261 0.9503840
1002.743 1.386127
1003.225 1.453114
1003.707 1.000471
1004.190 0.6810420
1004.672 0.9814830
1005.154 1.338104
1005.636 1.422001
1006.118 1.320137
1006.600 1.028122
1007.082 0.6687110
1007.564 0.5614130
1008.046 0.8421250
1008.529 1.063862
1009.011 0.7302130
1009.493 0.2574560
1009.975 5.9269000E-02
1010.457 7.0537999E-02
1010.939 0.2577720
1011.421 0.5754950
1011.903 0.7024210
1012.385 0.4657420
1012.868 0.1312050
1013.350 6.2159002E-02
1013.832 0.1342510
1014.314 7.8169003E-02
1014.796 4.8803002E-02
1015.278 6.5444998E-02
1015.760 2.1276001E-02
1016.242 9.9437997E-02
1016.725 0.6353610
1017.207 1.178614
1017.689 0.9953370
1018.171 0.3227440
1018.653 5.8699001E-02
1019.135 0.1611980
1019.617 0.2591290
1020.099 0.2728480
1020.581 0.3902240
1021.064 0.7432290
1021.546 1.159273
1022.028 1.305054
1022.510 1.190231
1022.992 0.9218440
1023.474 0.5055330
1023.956 0.3758130
1024.438 0.6398790
1024.921 0.9548760
1025.403 1.082203
1025.885 1.038879
1026.367 0.8218230
1026.849 0.4118400
1027.331 0.1476920
1027.813 3.4393001E-02
1028.295 5.2127998E-02
1028.777 0.2285650
1029.260 0.4170420
1029.742 0.4854240
1030.224 0.4962900
1030.706 0.6588690
1031.188 1.060537
1031.670 1.117168
1032.152 0.6976850
1032.634 0.3099370
1033.116 7.3875003E-02
1033.599 5.2646998E-02
1034.081 0.1236000
1034.563 0.1010820
1035.045 0.1557620
1035.527 0.1208290
1036.009 1.085859
1036.491 1.620382
1036.973 1.747526
1037.456 0.2468030
1037.938 0.8484520
1038.420 0.6077540
1038.902 0.3326700
1039.384 1.230621
1039.866 3.2586999E-02
1040.348 0.8470650
1040.830 1.178465
1041.313 1.475687
1041.795 1.164293
1042.277 0.7398740
1042.759 0.6169090
1043.241 0.7010860
1043.723 0.7046150
1044.205 0.6159420
1044.687 0.4659390
1045.169 3.9519999E-02
1045.651 0.1642250
1046.134 0.2219100
1046.616 0.6856980
1047.098 0.7755070
1047.580 0.6036930
1048.062 0.5483700
1048.544 0.6989080
1049.026 0.7624680
1049.508 0.7458690
1049.991 0.5788000
1050.473 8.2122996E-02
1050.955 0.6224120
1051.437 0.3469910
1051.919 0.4380660
1052.401 0.8525870
1052.883 0.7025530
1053.365 0.5017110
1053.848 9.0736002E-02
1054.330 1.1301000E-02
1054.812 0.8520660
1055.294 1.708096
1055.776 1.492949
1056.258 0.6344180
1056.740 0.3320260
1057.222 0.9010700
1057.704 1.336052
1058.187 1.375633
1058.669 1.224047
1059.151 0.8287620
1059.633 0.4137990
1060.115 0.1085050
1060.597 4.8519000E-02
1061.079 2.4145000E-02
1061.561 0.3646970
1062.043 0.6644400
1062.526 0.8247740
1063.008 0.9146270
1063.490 0.8946760
1063.972 0.8814470
1064.454 1.078360
1064.936 1.328716
1065.418 1.218237
1065.900 0.6559030
1066.383 0.3468890
1066.865 0.7881450
1067.347 1.254383
1067.829 1.254599
1068.311 1.275661
1068.793 1.971767
1069.275 2.921152
1069.757 3.205986
1070.240 2.681475
1070.722 2.287931
1071.204 2.626003
1071.686 2.900818
1072.168 2.701633
1072.650 2.332411
1073.132 1.852156
1073.614 1.466732
1074.096 1.565283
1074.578 2.153255
1075.061 2.638088
1075.543 2.650217
1076.025 2.713484
1076.507 3.265793
1076.989 3.784412
1077.471 3.803316
1077.953 3.536634
1078.435 3.347181
1078.918 3.273880
1079.400 3.113989
1079.882 2.632126
1080.364 2.389053
1080.846 2.875219
1081.328 3.462811
1081.810 3.838158
1082.292 3.942368
1082.774 3.505354
1083.257 2.717958
1083.739 2.504644
1084.221 3.447315
1084.703 4.162855
1085.185 3.676142
1085.667 3.131937
1086.149 3.451693
1086.631 4.018476
1087.114 4.054596
1087.596 3.618559
1088.078 3.197104
1088.560 2.891172
1089.042 2.798820
1089.524 3.236496
1090.006 3.568190
1090.488 3.172958
1090.970 2.700525
1091.453 2.905092
1091.935 3.585480
1092.417 4.122692
1092.899 4.382795
1093.381 4.423849
1093.863 4.014534
1094.345 3.717396
1094.827 3.909019
1095.309 4.216970
1095.792 4.376127
1096.274 4.386644
1096.756 4.258944
1097.238 3.997728
1097.720 3.841105
1098.202 4.094856
1098.684 4.144028
1099.166 3.327305
1099.649 2.701790
1100.131 3.278624
1100.613 4.374401
1101.095 5.037220
1101.577 5.146252
1102.059 4.794933
1102.541 3.361139
1103.023 2.523851
1103.505 3.075449
1103.988 3.859529
1104.470 4.471912
1104.952 4.822712
1105.434 4.730030
1105.916 4.291002
1106.398 3.977200
1106.880 3.805086
1107.362 3.889313
1107.844 4.568972
1108.327 5.095943
1108.809 5.202244
1109.291 5.028719
1109.773 4.519493
1110.255 3.834114
1110.737 3.444395
1111.219 3.459499
1111.701 3.466108
1112.184 3.306757
1112.666 3.317156
1113.148 3.792347
1113.630 4.234169
1114.112 4.188929
1114.594 3.938761
1115.076 4.071016
1115.558 4.655560
1116.041 4.916393
1116.523 4.706207
1117.005 4.416605
1117.487 3.987549
1117.969 3.621954
1118.451 3.397182
1118.933 3.302910
1119.415 3.312729
1119.897 3.433533
1120.380 3.793026
1120.862 4.732515
1121.344 4.999805
1121.826 4.093987
1122.308 3.536448
1122.790 4.072496
1123.272 4.772276
1123.754 4.739019
1124.236 4.200348
1124.719 3.911373
1125.201 3.917967
1125.683 3.931955
1126.165 3.967720
1126.647 3.951220
1127.129 3.852922
1127.611 3.729029
1128.093 3.592781
1128.576 3.518473
1129.058 3.684965
1129.540 4.093103
1130.022 4.268553
1130.504 4.171522
1130.986 3.958586
1131.468 3.642912
1131.950 3.394236
1132.432 3.365978
1132.915 3.365078
1133.397 3.405369
1133.879 3.465729
1134.361 3.426048
1134.843 3.229464
1135.325 3.360090
1135.807 3.826324
1136.289 4.102537
1136.771 4.086653
1137.254 3.910675
1137.736 3.774714
1138.218 3.580736
1138.700 2.991352
1139.182 2.243195
1139.664 2.092506
1140.146 2.457943
1140.628 3.150562
1141.111 4.016256
1141.593 4.336998
1142.075 3.752369
1142.557 2.961191
1143.039 2.725159
1143.521 2.806044
1144.003 2.909050
1144.485 2.972635
1144.968 2.799938
1145.450 2.480167
1145.932 2.385178
1146.414 2.598557
1146.896 2.708235
1147.378 2.306023
1147.860 1.929939
1148.342 2.228542
1148.824 2.735182
1149.307 2.902948
1149.789 2.863201
1150.271 2.950365
1150.753 3.156569
1151.235 3.149755
1151.717 2.749636
1152.199 2.342001
1152.681 2.143320
1153.163 2.016736
1153.646 1.819303
1154.128 1.683065
1154.610 1.888884
1155.092 2.254304
1155.574 2.273918
1156.056 1.840379
1156.538 1.553618
1157.020 1.689557
1157.503 1.848743
1157.985 1.864872
1158.467 1.929062
1158.949 2.340033
1159.431 2.744392
1159.913 2.602818
1160.395 1.488964
1160.877 2.005150
1161.359 2.266512
1161.842 2.286628
1162.324 1.343620
1162.806 1.644460
1163.288 1.446831
1163.770 1.228743
1164.252 1.704665
1164.734 0.9017400
1165.216 1.366654
1165.698 1.325458
1166.181 1.515753
1166.663 1.421022
1167.145 1.580103
1167.627 1.654149
1168.109 1.573890
1168.591 1.267955
1169.073 0.9096910
1169.555 0.6651970
1170.037 0.5808790
1170.520 0.9077390
1171.002 1.633475
1171.484 2.124929
1171.966 2.333455
1172.448 2.366504
1172.930 2.276443
1173.412 1.935523
1173.894 1.227324
1174.377 0.5031320
1174.859 0.3403260
1175.341 0.5459780
1175.823 0.6359730
1176.305 0.6257840
1176.787 0.5339480
1177.269 0.3863110
1177.751 0.2308620
1178.234 9.9156998E-02
1178.716 0.1387940
1179.198 0.5796670
1179.680 0.9713900
1180.162 0.7119420
1180.644 0.2038890
1181.126 0.1756720
1181.608 0.3533510
1182.090 0.1841510
1182.573 0.2581400
1183.055 0.7005670
1183.537 1.075181
1184.019 1.192356
1184.501 0.6768610
1184.983 0.2206760
1185.465 0.3850010
1185.947 0.6100980
1186.429 0.2932730
1186.912 0.2683460
1187.394 0.5088450
1187.876 0.3717020
1188.358 9.9944003E-02
1188.840 0.6482880
1189.322 0.9218240
1189.804 1.094468
1190.286 3.0051000E-02
1190.769 0.6025200
1191.251 0.8263950
1191.733 0.5769420
1192.215 0.1217320
1192.697 2.4405999E-02
1193.179 0.2053270
1193.661 0.7895650
1194.143 0.3828110
1194.625 0.3998000
1195.108 0.6217050
1195.590 0.6890230
1196.072 0.3453990
1196.554 8.1519999E-02
1197.036 0.2121230
1197.518 0.1356190
1198.000 0.1742120
1198.482 0.2856500
1198.964 3.9441001E-02
1199.447 0.7318210
1199.929 0.9820060
1200.411 0.6467900
1200.893 0.2926320
1201.375 0.2428930
1201.857 0.3750870
1202.339 0.6451260
1202.821 0.9176110
1203.304 0.9239430
1203.786 0.8226840
1204.268 0.8841710
1204.750 1.009712
1205.232 0.9298860
1205.714 0.6080930
1206.196 0.2910590
1206.678 7.5910002E-02
1207.161 1.3793000E-02
1207.643 0.1250450
1208.125 0.2891760
1208.607 0.3544960
1209.089 0.3575860
1209.571 0.3225810
1210.053 0.2690750
1210.535 0.1747310
1211.017 2.1191999E-02
1211.500 0.1627920
1211.982 1.084282
1212.464 1.633969
1212.946 1.447004
1213.428 1.138227
1213.910 0.8688090
1214.392 0.6476140
1214.874 0.4852500
1215.356 0.3778410
1215.839 0.3080730
1216.321 0.2686390
1216.803 0.3526950
1217.285 0.5848220
1217.767 0.8075960
1218.249 1.008957
1218.731 1.003725
1219.213 0.6732850
1219.696 0.4312270
1220.178 0.7938560
1220.660 1.419546
1221.142 1.429543
1221.624 1.051120
1222.106 1.079735
1222.588 1.414654
1223.070 1.602830
1223.552 1.570584
1224.035 1.449732
1224.517 1.300965
1224.999 1.248991
1225.481 1.610860
1225.963 1.874459
1226.445 1.400397
1226.927 0.7388470
1227.409 0.4761990
1227.891 0.4535110
1228.374 0.2568660
1228.856 7.6118998E-02
1229.338 1.2271000E-02
1229.820 0.7423380
1230.302 1.288985
1230.784 1.288934
1231.266 1.236490
1231.748 1.294571
1232.231 1.332979
1232.713 1.207548
1233.195 1.069176
1233.677 1.167865
1234.159 1.423183
1234.641 1.530177
1235.123 1.456273
1235.605 1.234956
1236.088 0.7592420
1236.570 0.6059000
1237.052 1.206537
1237.534 1.552368
1238.016 1.657081
1238.498 0.7985258
1238.980 0.9484010
1239.462 1.402190
1239.944 1.407259
1240.427 1.092866
1240.909 0.8965200
1241.391 0.8122900
1241.873 0.7508110
1242.355 0.7562690
1242.837 0.9098750
1243.319 1.340448
1243.801 1.628600
1244.283 1.279192
1244.766 0.9467960
1245.248 0.6769322
1245.730 1.361132
1246.212 1.790558
1246.694 1.978850
1247.176 1.203900
1247.658 1.672795
1248.140 1.643235
1248.622 0.6777340
1249.105 0.1760700
1249.587 0.7286970
1250.069 1.108521
1250.551 0.9355420
1251.033 0.7150270
1251.515 0.7680130
1251.997 0.9665490
1252.479 1.086893
1252.962 1.136509
1253.444 1.223142
1253.926 1.358500
1254.408 1.508569
1254.890 1.656343
1255.372 1.534359
1255.854 1.105688
1256.336 0.6779880
1256.818 0.4250970
1257.301 0.3676450
1257.783 0.6176040
1258.265 0.9919530
1258.747 1.236073
1259.229 1.294786
1259.711 1.089827
1260.193 0.7242630
1260.675 0.2413700
1261.157 0.2266650
1261.640 0.2122380
1262.122 0.5535140
1262.604 1.247329
1263.086 1.857959
1263.568 2.012823
1264.050 1.051131
1264.532 0.2195630
1265.014 0.3734210
1265.497 0.9260380
1265.979 1.299996
1266.461 1.476068
1266.943 1.321692
1267.425 0.7606490
1267.907 0.4335830
1268.389 0.3893570
1268.871 0.4460560
1269.354 0.5760870
1269.836 0.8177370
1270.318 1.193959
1270.800 1.417095
1271.282 1.167369
1271.764 0.7231290
1272.246 0.4951610
1272.728 0.4379990
1273.210 0.4548440
1273.693 0.5421690
1274.175 0.4929220
1274.657 0.7438120
1275.139 1.366202
1275.621 2.382825
1276.103 2.868655
1276.585 2.022559
1277.067 1.258583
1277.549 1.193205
1278.032 1.123478
1278.514 0.5377180
1278.996 2.8511001E-02
1279.478 7.3565997E-02
1279.960 0.1972700
1280.442 0.4305120
1280.924 0.6241260
1281.406 0.6020860
1281.889 0.3043070
1282.371 0.2987680
1282.853 0.6205380
1283.335 0.8487810
1283.817 0.9876860
1284.299 0.9539570
1284.781 0.7316930
1285.263 0.4459960
1285.745 0.1941120
1286.228 0.0000000E+00
