#Shining_header
#Data type:raman_database
#CAS:Not entered
#Material scientific name:Anorthite
#Manufacturer:Not entered
#Laser model:Not entered
#Spectrometer model:Not entered
#Testing unit:Not entered
#Test time:Not entered
#Other experimental details:Not entered
#Shining_data
146.2648 0.0000000E+00
146.7469 22.92407
147.2291 26.91602
147.7112 3.618408
148.1933 6.822754
148.6754 0.2060550
149.1575 15.20093
149.6396 21.89038
150.1218 17.95898
150.6039 22.41431
151.0860 48.35840
151.5681 88.69849
152.0502 123.4109
152.5323 146.1846
153.0145 158.8806
153.4966 165.7244
153.9787 165.0132
154.4608 163.8113
154.9429 166.2510
155.4250 172.2114
155.9072 183.8162
156.3893 210.7642
156.8714 239.7239
157.3535 256.4304
157.8356 252.9841
158.3177 245.0046
158.7999 258.8855
159.2820 303.7361
159.7641 349.2971
160.2462 381.0813
160.7283 409.1296
161.2104 443.8740
161.6926 489.8062
162.1747 546.8765
162.6568 616.4434
163.1389 723.2615
163.6210 810.6248
164.1031 869.4421
164.5853 899.3174
165.0674 899.6482
165.5495 866.6558
166.0316 798.9976
166.5137 733.0312
166.9958 652.3435
167.4780 588.2017
167.9601 560.6060
168.4422 562.6094
168.9243 571.0007
169.4064 561.7617
169.8885 527.3171
170.3707 503.7556
170.8528 494.7488
171.3349 491.5295
171.8170 487.3181
172.2991 481.7161
172.7813 481.2834
173.2634 496.5215
173.7455 545.8213
174.2276 570.1182
174.7097 544.9697
175.1918 506.2654
175.6740 491.5027
176.1561 512.5537
176.6382 550.4255
177.1203 569.8066
177.6024 563.5259
178.0845 558.5669
178.5667 559.2178
179.0488 564.6619
179.5309 574.0581
180.0130 587.8523
180.4951 604.2239
180.9772 618.8591
181.4594 630.5845
181.9415 643.4099
182.4236 663.3911
182.9057 687.7788
183.3878 702.6870
183.8699 696.4395
184.3521 680.4241
184.8342 677.7114
185.3163 694.6233
185.7984 715.8892
186.2805 728.5046
186.7626 732.3655
187.2448 738.6909
187.7269 754.8345
188.2090 777.9753
188.6911 804.5027
189.1732 825.9021
189.6553 847.8308
190.1375 889.4888
190.6196 966.2148
191.1017 1026.051
191.5838 1020.460
192.0659 993.1110
192.5480 991.2367
193.0302 1045.772
193.5123 1131.151
193.9944 1171.841
194.4765 1141.968
194.9586 1110.945
195.4407 1112.413
195.9229 1130.858
196.4050 1141.130
196.8871 1124.447
197.3692 1086.245
197.8513 1063.031
198.3334 1069.974
198.8156 1075.776
199.2977 1070.942
199.7798 1057.190
200.2619 1038.671
200.7440 1017.363
201.2261 993.0044
201.7083 973.5673
202.1904 968.0333
202.6725 959.7529
203.1546 938.0389
203.6367 907.5032
204.1188 883.1560
204.6010 883.5632
205.0831 918.7994
205.5652 921.0297
206.0473 861.4573
206.5294 797.3313
207.0115 751.3619
207.4937 725.5684
207.9758 711.6096
208.4579 702.3645
208.9400 705.0227
209.4221 687.2832
209.9042 628.5498
210.3864 568.5591
210.8685 533.8220
211.3506 527.0374
211.8327 532.3979
212.3148 529.9612
212.7970 517.4797
213.2791 500.6915
213.7612 475.3625
214.2433 448.6353
214.7254 425.3926
215.2075 407.0676
215.6897 392.7267
216.1718 380.6982
216.6539 366.2361
217.1360 365.4418
217.6181 401.6096
218.1002 441.6537
218.5824 446.4800
219.0645 404.0129
219.5466 339.5361
220.0287 296.1152
220.5108 282.8683
220.9929 269.0822
221.4751 251.8376
221.9572 231.6144
222.4393 207.5903
222.9214 178.5565
223.4035 149.0251
223.8856 128.2549
224.3678 116.5233
224.8499 109.4817
225.3320 113.7936
225.8141 121.2765
226.2962 114.5044
226.7783 84.39514
227.2605 43.56226
227.7426 16.46765
228.2247 5.269165
228.7068 3.033813
229.1889 11.50684
229.6710 20.57849
230.1532 32.43860
230.6353 49.80505
231.1174 67.49451
231.5995 76.32068
232.0816 75.42468
232.5637 70.17725
233.0459 60.06616
233.5280 46.85669
234.0101 38.13086
234.4922 39.30444
234.9743 43.85608
235.4564 40.23450
235.9386 25.31274
236.4207 11.49182
236.9028 9.227173
237.3849 16.53674
237.8670 20.43872
238.3491 18.06873
238.8313 7.580688
239.3134 13.67542
239.7955 49.99158
240.2776 84.75134
240.7597 103.1456
241.2418 106.2229
241.7240 109.3229
242.2061 112.2467
242.6882 122.4906
243.1703 150.9834
243.6524 203.9734
244.1345 257.5060
244.6167 285.8887
245.0988 288.9451
245.5809 299.2024
246.0630 326.2159
246.5451 367.1183
247.0272 424.1902
247.5094 502.9558
247.9915 577.6428
248.4736 611.9138
248.9557 601.4818
249.4378 615.1246
249.9199 704.0413
250.4021 811.0990
250.8842 883.6267
251.3663 909.4050
251.8484 920.1423
252.3305 946.4265
252.8126 988.9072
253.2948 1041.606
253.7769 1114.713
254.2590 1190.620
254.7411 1251.011
255.2232 1289.673
255.7053 1331.947
256.1874 1414.660
256.6696 1546.653
257.1517 1663.958
257.6338 1738.399
258.1159 1796.060
258.5980 1850.919
259.0801 1905.638
259.5623 1961.450
260.0444 2021.370
260.5265 2087.148
261.0086 2147.063
261.4907 2200.019
261.9728 2244.146
262.4550 2277.180
262.9371 2298.588
263.4192 2310.411
263.9013 2319.240
264.3834 2329.207
264.8655 2313.884
265.3477 2243.676
265.8298 2159.797
266.3119 2087.697
266.7940 2032.905
267.2761 1980.454
267.7582 1912.716
268.2404 1827.434
268.7225 1739.238
269.2046 1640.254
269.6867 1545.612
270.1688 1467.083
270.6509 1406.286
271.1331 1351.188
271.6152 1288.225
272.0973 1215.567
272.5794 1143.837
273.0615 1062.058
273.5436 990.7112
274.0258 947.8018
274.5079 933.8220
274.9900 925.5946
275.4721 891.5249
275.9542 823.8676
276.4363 780.1328
276.9185 793.4607
277.4006 815.1907
277.8827 822.2374
278.3648 812.2217
278.8469 795.7639
279.3290 781.4231
279.8112 768.6211
280.2933 762.2047
280.7754 773.2937
281.2575 784.0001
281.7396 782.4890
282.2217 768.7583
282.7039 752.6573
283.1860 743.5131
283.6681 741.7969
284.1502 740.3396
284.6323 735.1504
285.1144 731.4202
285.5966 735.3188
286.0787 745.8859
286.5608 753.6797
287.0429 745.0885
287.5250 719.1265
288.0071 708.8264
288.4893 738.7234
288.9714 759.4067
289.4535 745.1090
289.9356 702.7744
290.4177 655.6359
290.8998 623.5928
291.3820 605.2645
291.8641 576.6335
292.3462 524.4036
292.8283 476.2471
293.3104 443.8280
293.7925 425.7371
294.2747 416.1117
294.7568 416.0554
295.2389 421.9987
295.7210 410.4468
296.2031 371.3301
296.6852 329.5565
297.1674 294.6935
297.6495 265.0089
298.1316 237.5640
298.6137 209.1141
299.0958 181.7668
299.5779 164.7820
300.0601 165.3060
300.5422 163.3823
301.0243 150.7189
301.5064 130.8716
301.9885 106.7161
302.4706 73.74487
302.9528 42.69824
303.4349 43.11255
303.9170 88.71423
304.3991 133.1014
304.8812 164.6006
305.3633 182.6832
305.8455 182.1964
306.3276 155.7114
306.8097 120.4406
307.2918 105.6707
307.7739 116.5334
308.2560 129.9373
308.7382 136.8925
309.2203 142.4395
309.7024 150.8278
310.1845 163.0326
310.6666 178.7969
311.1487 201.1617
311.6309 232.1082
312.1130 253.9889
312.5951 246.3413
313.0772 236.1222
313.5593 249.9746
314.0414 294.6478
314.5236 344.3396
315.0057 375.1447
315.4878 387.3496
315.9699 395.0823
316.4520 396.3977
316.9341 399.2855
317.4163 414.8752
317.8984 444.6296
318.3805 467.3813
318.8626 462.1333
319.3447 434.0846
319.8268 415.4629
320.3090 419.8420
320.7911 424.9337
321.2732 407.4963
321.7553 369.1588
322.2374 332.3209
322.7195 310.9440
323.2017 299.5979
323.6838 282.4708
324.1659 255.3065
324.6480 227.0192
325.1301 206.4138
325.6122 191.7203
326.0944 175.8842
326.5765 150.6141
327.0586 124.6868
327.5407 114.6290
328.0228 124.3765
328.5049 135.9723
328.9871 134.4232
329.4692 123.0195
329.9513 112.2074
330.4334 99.85437
330.9155 91.38586
331.3976 96.80396
331.8798 116.3134
332.3619 130.8260
332.8440 125.7035
333.3261 105.7744
333.8082 92.40588
334.2903 91.16479
334.7725 92.16956
335.2546 90.51404
335.7367 86.07336
336.2188 78.28711
336.7010 66.63806
337.1831 51.34180
337.6652 32.74011
338.1473 5.315796
338.6294 16.91174
339.1115 25.32898
339.5937 24.63440
340.0758 26.35840
340.5579 36.17102
341.0400 47.05005
341.5221 41.60425
342.0042 8.196655
342.4864 12.90845
342.9685 4.728271
343.4506 16.21350
343.9327 30.15295
344.4148 31.82202
344.8969 25.89124
345.3791 18.03174
345.8612 6.305176
346.3433 1.886597
346.8254 6.205444
347.3075 7.227051
347.7896 2.116699
348.2718 7.949951
348.7539 14.19763
349.2360 6.566772
349.7181 18.56165
350.2002 33.94617
350.6823 38.51880
351.1645 36.23523
351.6466 22.05725
352.1287 1.565796
352.6108 10.74524
353.0929 3.459717
353.5750 22.29065
354.0572 44.68115
354.5393 67.64575
355.0214 82.96997
355.5035 81.41016
355.9856 72.44666
356.4677 71.05713
356.9499 85.41125
357.4320 110.4586
357.9141 129.9979
358.3962 143.2280
358.8783 151.2158
359.3604 151.7090
359.8426 148.7120
360.3247 145.9116
360.8068 144.4945
361.2889 143.0021
361.7710 138.7838
362.2531 130.3558
362.7353 122.4471
363.2174 109.1088
363.6995 100.9279
364.1816 109.6235
364.6637 133.6526
365.1458 156.3461
365.6280 159.3943
366.1101 141.2841
366.5922 123.8645
367.0743 100.8135
367.5564 86.26233
368.0385 87.85083
368.5207 103.1041
369.0028 125.2441
369.4849 157.0133
369.9670 192.2191
370.4491 201.7578
370.9312 168.2167
371.4134 145.1675
371.8955 174.1893
372.3776 226.5442
372.8597 257.8973
373.3418 244.2106
373.8239 214.2051
374.3061 209.0206
374.7882 231.2686
375.2703 253.4829
375.7524 262.7875
376.2345 266.8495
376.7166 275.7742
377.1988 291.2601
377.6809 309.0826
378.1630 328.5380
378.6451 348.4697
379.1272 363.3031
379.6093 369.9110
380.0915 373.4169
380.5736 382.0254
381.0557 396.4906
381.5378 406.9510
382.0199 398.6851
382.5020 388.7493
382.9842 407.6252
383.4663 461.6093
383.9484 518.9447
384.4305 544.7247
384.9126 535.3297
385.3947 543.1840
385.8769 585.8477
386.3590 633.1392
386.8411 665.9589
387.3232 684.9650
387.8053 698.5961
388.2874 711.7441
388.7696 723.5814
389.2517 726.6112
389.7338 719.3297
390.2159 707.9752
390.6980 688.7437
391.1801 665.3324
391.6623 644.8589
392.1444 630.6237
392.6265 620.9362
393.1086 610.9867
393.5907 600.6826
394.0728 592.9034
394.5550 589.1621
395.0371 584.0250
395.5192 573.4779
396.0013 557.4979
396.4834 538.4380
396.9655 520.2990
397.4477 503.0438
397.9298 490.1880
398.4119 477.6984
398.8940 472.5719
399.3761 487.5140
399.8582 515.4718
400.3404 534.2946
400.8225 526.1013
401.3046 496.7931
401.7867 479.3302
402.2688 480.4117
402.7509 484.2759
403.2331 487.2897
403.7152 489.5272
404.1973 489.2954
404.6794 484.4247
405.1615 481.0135
405.6436 488.9375
406.1258 508.7755
406.6079 526.6262
407.0900 544.8790
407.5721 555.5807
408.0542 545.1935
408.5363 511.7036
409.0185 486.5687
409.5006 500.3486
409.9827 536.1788
410.4648 546.9539
410.9469 522.5292
411.4290 489.1123
411.9112 470.9315
412.3933 465.4227
412.8754 458.0956
413.3575 446.5668
413.8396 432.2275
414.3217 412.3936
414.8039 388.7815
415.2860 373.9429
415.7681 378.3640
416.2502 396.6337
416.7323 401.5391
417.2144 375.2625
417.6966 358.8314
418.1787 379.6178
418.6608 412.8921
419.1429 418.1425
419.6250 380.9648
420.1071 323.4932
420.5893 283.4047
421.0714 272.6433
421.5535 255.9648
422.0356 228.4187
422.5177 199.3700
422.9998 172.0505
423.4820 148.4574
423.9641 132.1216
424.4462 127.4231
424.9283 134.4210
425.4104 138.0464
425.8925 138.4094
426.3747 134.8158
426.8568 122.5699
427.3389 107.4515
427.8210 98.49670
428.3031 100.6757
428.7852 108.3822
429.2674 111.5824
429.7495 111.1964
430.2316 103.2131
430.7137 71.58374
431.1958 41.25012
431.6779 34.40820
432.1601 53.80811
432.6422 73.24634
433.1243 69.68311
433.6064 48.14014
434.0885 30.95789
434.5706 20.75232
435.0528 15.60474
435.5349 14.12122
436.0170 16.16479
436.4991 22.84363
436.9812 42.03149
437.4633 60.86267
437.9455 64.43579
438.4276 53.93127
438.9097 43.46216
439.3918 41.88525
439.8739 45.04773
440.3560 38.16760
440.8382 10.58765
441.3203 9.672974
441.8024 10.84045
442.2845 1.696899
442.7666 7.930664
443.2487 14.99683
443.7309 17.78149
444.2130 12.93982
444.6951 3.843262
445.1772 13.82214
445.6593 8.725464
446.1414 5.308960
446.6236 17.36475
447.1057 39.35291
447.5878 54.61462
448.0699 50.87537
448.5520 31.47351
449.0341 13.98865
449.5163 8.552368
449.9984 17.17798
450.4805 4.520630
450.9626 33.80652
451.4447 46.95801
451.9268 36.88025
452.4090 17.22437
452.8911 3.270142
453.3732 4.891357
453.8553 11.29175
454.3374 16.76306
454.8195 19.98279
455.3017 19.34045
455.7838 15.57251
456.2659 12.19373
456.7480 8.775879
457.2301 7.536377
457.7122 12.52673
458.1944 24.06445
458.6765 38.31458
459.1586 54.35327
459.6407 71.24646
460.1228 86.34558
460.6049 100.2417
461.0871 111.5381
461.5692 116.3265
462.0513 118.8486
462.5334 128.5078
463.0155 148.3948
463.4977 169.2296
463.9798 176.9550
464.4619 163.6124
464.9440 162.6107
465.4261 187.9508
465.9082 212.2766
466.3904 214.4283
466.8725 201.2269
467.3546 195.1737
467.8367 212.0610
468.3188 247.9906
468.8009 283.1101
469.2831 318.2306
469.7652 351.3093
470.2473 387.3177
470.7294 418.3959
471.2115 432.5032
471.6936 427.5414
472.1758 422.8276
472.6579 442.7512
473.1400 486.9808
473.6221 525.3744
474.1042 551.1450
474.5863 575.8201
475.0685 608.3435
475.5506 646.3660
476.0327 682.9929
476.5148 715.7251
476.9969 745.5852
477.4790 774.1685
477.9612 801.3274
478.4433 825.2710
478.9254 846.2629
479.4075 862.3145
479.8896 868.8279
480.3717 867.5782
480.8539 855.5822
481.3360 822.7825
481.8181 783.4072
482.3002 753.0359
482.7823 734.4922
483.2644 724.6517
483.7466 723.6621
484.2287 734.6173
484.7108 718.1897
485.1929 645.1846
485.6750 578.9741
486.1571 539.8241
486.6393 520.0857
487.1214 506.4827
487.6035 493.1809
488.0856 481.5630
488.5677 475.9095
489.0498 479.3528
489.5320 477.7488
490.0141 457.9142
490.4962 441.3522
490.9783 443.7638
491.4604 462.9670
491.9425 482.3888
492.4247 485.5553
492.9068 481.0833
493.3889 485.8265
493.8710 499.6575
494.3531 526.2649
494.8352 578.1737
495.3174 641.1150
495.7995 680.3987
496.2816 678.0321
496.7637 681.5601
497.2458 717.9462
497.7279 774.1917
498.2101 827.9385
498.6922 873.4319
499.1743 916.3787
499.6564 964.5132
500.1385 1018.962
500.6206 1073.838
501.1028 1127.009
501.5849 1182.929
502.0670 1246.131
502.5491 1313.243
503.0312 1378.125
503.5133 1437.850
503.9955 1494.972
504.4776 1556.214
504.9597 1625.690
505.4418 1686.396
505.9239 1730.933
506.4060 1773.256
506.8882 1823.987
507.3703 1881.394
507.8524 1930.933
508.3345 1962.976
508.8166 1978.324
509.2987 1982.334
509.7809 1975.500
510.2630 1963.467
510.7451 1947.305
511.2272 1927.123
511.7093 1904.847
512.1914 1882.425
512.6735 1854.679
513.1556 1812.219
513.6378 1764.493
514.1199 1728.726
514.6020 1708.767
515.0841 1698.126
515.5662 1691.315
516.0483 1690.442
516.5305 1678.084
517.0126 1642.267
517.4947 1609.334
517.9768 1589.553
518.4589 1579.894
518.9410 1577.169
519.4232 1580.457
519.9053 1581.090
520.3874 1559.558
520.8695 1508.415
521.3516 1461.147
521.8337 1432.774
522.3159 1399.677
522.7980 1342.678
523.2801 1268.090
523.7622 1202.722
524.2443 1170.073
524.7264 1149.959
525.2086 1105.424
525.6907 1036.289
526.1728 960.3198
526.6549 878.3069
527.1370 800.2173
527.6191 749.0115
528.1013 737.3044
528.5834 715.7321
529.0655 661.6658
529.5476 594.7885
530.0297 535.7053
530.5118 487.7198
530.9940 446.0393
531.4761 406.1581
531.9582 368.3907
532.4403 340.5479
532.9224 332.9766
533.4045 324.0416
533.8867 304.6278
534.3688 285.5939
534.8509 282.4130
535.3330 298.3082
535.8151 313.7162
536.2972 300.2869
536.7794 258.5703
537.2615 235.2209
537.7436 240.1838
538.2257 250.4470
538.7078 254.9878
539.1899 255.1692
539.6721 252.4004
540.1542 244.5323
540.6363 237.1067
541.1184 238.4899
541.6005 244.5383
542.0826 239.9802
542.5648 218.6877
543.0469 192.1489
543.5290 176.3285
544.0111 175.3167
544.4932 169.9923
544.9753 156.4076
545.4575 142.4265
545.9396 130.8661
546.4217 122.3997
546.9038 120.5609
547.3859 128.2766
547.8680 134.9124
548.3502 109.9666
548.8323 32.24829
549.3144 15.49084
549.7965 5.184448
550.2786 36.43872
550.7607 46.95520
551.2429 39.09668
551.7250 33.77588
552.2071 49.90210
552.6892 71.71399
553.1713 67.91882
553.6534 38.53625
554.1356 17.82263
554.6177 25.04065
555.0998 45.08936
555.5819 45.55371
556.0640 19.70691
556.5461 0.7043460
557.0283 4.659424
557.5104 0.8139650
557.9925 12.25916
558.4746 31.83093
558.9567 50.37476
559.4388 62.61011
559.9210 68.92358
560.4031 71.05457
560.8852 69.48999
561.3673 62.47937
561.8494 38.53552
562.3315 17.65015
562.8137 21.60950
563.2958 49.34949
563.7779 73.46570
564.2600 67.05676
564.7421 40.57373
565.2242 25.05957
565.7064 21.31836
566.1885 27.79602
566.6706 52.72290
567.1527 83.17346
567.6348 89.18665
568.1169 58.72290
568.5991 32.30591
569.0812 24.42029
569.5633 27.24329
570.0454 34.32666
570.5275 43.55969
571.0096 50.65515
571.4918 51.50696
571.9739 46.97729
572.4560 46.98083
572.9381 58.85376
573.4202 65.22583
573.9023 61.23425
574.3845 52.35266
574.8666 41.80725
575.3487 30.92712
575.8308 23.29175
576.3129 25.22266
576.7950 33.55444
577.2772 33.35730
577.7593 21.68799
578.2414 11.85046
578.7235 15.11145
579.2056 24.06189
579.6877 20.90527
580.1699 0.6567380
580.6520 22.08264
581.1341 43.34180
581.6162 57.20740
582.0984 47.92126
582.5805 16.32935
583.0626 13.95715
583.5447 22.03845
584.0269 9.709106
584.5090 0.2480470
584.9911 6.495483
585.4732 9.768799
585.9553 7.650879
586.4374 3.326660
586.9196 0.6112060
587.4017 3.585571
587.8838 6.065796
588.3659 7.792725
588.8480 9.306885
589.3301 13.96936
589.8123 23.33130
590.2944 28.13831
590.7765 20.77051
591.2586 6.202637
591.7407 2.948730
592.2228 5.588257
592.7050 5.453125
593.1871 0.6383060
593.6692 4.631470
594.1513 3.202881
594.6334 3.914673
595.1155 6.382202
595.5977 5.218262
596.0798 27.67432
596.5619 39.35938
597.0440 32.72644
597.5261 28.04065
598.0082 23.22290
598.4904 25.14294
598.9725 46.73572
599.4546 85.62268
599.9367 114.4087
600.4188 103.7366
600.9009 72.94250
601.3831 65.31970
601.8652 82.59167
602.3473 94.63159
602.8294 85.42249
603.3115 66.92896
603.7936 64.66614
604.2758 83.95605
604.7579 97.62549
605.2400 98.25244
605.7221 96.42798
606.2042 99.30713
606.6863 106.5497
607.1685 114.8434
607.6506 125.0812
608.1327 134.3513
608.6148 133.3086
609.0969 115.0315
609.5790 108.4705
610.0612 131.3672
610.5433 158.4098
611.0254 168.5718
611.5075 164.9330
611.9896 156.4474
612.4717 140.6936
612.9539 126.2642
613.4360 127.8053
613.9181 141.2163
614.4002 148.5469
614.8823 143.0332
615.3644 128.8423
615.8466 109.0701
616.3287 76.80725
616.8108 65.64075
617.2929 93.65540
617.7750 121.6534
618.2571 131.4209
618.7393 129.9783
619.2214 131.5488
619.7035 142.0476
620.1856 153.8682
620.6677 156.6079
621.1498 150.4097
621.6320 140.9955
622.1141 125.2505
622.5962 114.0575
623.0783 121.7286
623.5604 140.0288
624.0425 145.5280
624.5247 121.1523
625.0068 103.5737
625.4889 115.3339
625.9710 141.5453
626.4531 163.0878
626.9352 175.3971
627.4174 180.3204
627.8995 178.7778
628.3816 171.1483
628.8637 163.6160
629.3458 149.9265
629.8279 146.7582
630.3101 171.1041
630.7922 197.5491
631.2743 198.3043
631.7564 171.3746
632.2385 147.9722
632.7206 155.6398
633.2028 177.1547
633.6849 180.3337
634.1670 164.9692
634.6491 151.2941
635.1312 149.0761
635.6133 154.4694
636.0955 159.5151
636.5776 163.2629
637.0597 168.9003
637.5418 182.4730
638.0239 191.9284
638.5060 185.8007
638.9882 169.3912
639.4703 156.9885
639.9524 157.8322
640.4345 163.9503
640.9166 157.2788
641.3987 135.8284
641.8809 116.7648
642.3630 100.1230
642.8451 90.02936
643.3272 96.14221
643.8093 113.1460
644.2914 122.0117
644.7736 114.9785
645.2557 105.0581
645.7378 97.26892
646.2199 90.60083
646.7020 82.63428
647.1841 73.39697
647.6663 66.59778
648.1484 66.33618
648.6305 72.04810
649.1126 76.06775
649.5947 80.07349
650.0768 78.93201
650.5590 67.08435
651.0411 53.07385
651.5232 44.36951
652.0053 41.31824
652.4874 37.85388
652.9695 28.22131
653.4517 19.26111
653.9338 21.44702
654.4159 32.56348
654.8980 38.78589
655.3801 33.17322
655.8622 22.05017
656.3444 17.32202
656.8265 23.42468
657.3086 23.80566
657.7907 11.81384
658.2728 1.790283
658.7549 5.688354
659.2371 14.25549
659.7192 7.641113
660.2013 23.89294
660.6834 54.00854
661.1655 46.29858
661.6476 10.02155
662.1298 9.667114
662.6119 5.406372
663.0940 4.350708
663.5761 9.016174
664.0582 8.503418
664.5403 2.232300
665.0225 18.69751
665.5046 32.20020
665.9867 31.86084
666.4688 24.92828
666.9509 13.25879
667.4330 0.2913820
667.9152 32.35223
668.3973 4.576904
668.8794 27.47327
669.3615 37.09192
669.8436 6.337280
670.3257 18.72675
670.8079 16.34106
671.2900 12.82678
671.7721 47.53009
672.2542 11.80975
672.7363 46.17340
673.2184 52.75879
673.7006 71.75983
674.1827 63.12048
674.6648 63.01276
675.1469 90.55743
675.6290 102.8465
676.1111 84.96277
676.5933 90.91187
677.0754 91.77893
677.5575 97.34680
678.0396 107.3049
678.5217 122.7840
679.0038 155.3871
679.4860 186.3363
679.9681 192.3347
680.4502 171.9253
680.9323 159.6052
681.4144 174.7133
681.8965 198.6636
682.3787 213.4225
682.8608 222.1996
683.3429 238.1813
683.8250 266.8434
684.3071 297.7194
684.7892 313.2596
685.2714 309.6407
685.7535 314.2706
686.2356 335.0613
686.7177 353.6888
687.1998 360.9232
687.6819 363.7046
688.1641 370.5317
688.6462 383.0201
689.1283 399.3984
689.6104 421.6349
690.0925 445.5706
690.5746 466.2504
691.0568 482.9645
691.5389 491.0869
692.0210 485.6029
692.5031 479.5332
692.9852 506.1400
693.4673 592.2505
693.9495 646.0328
694.4316 642.5159
694.9137 632.3208
695.3958 632.2733
695.8779 640.8248
696.3600 652.4373
696.8422 664.7470
697.3243 682.9722
697.8064 721.6668
698.2885 767.1013
698.7706 783.3079
699.2527 767.6817
699.7349 757.5985
700.2170 780.3816
700.6991 823.8951
701.1812 845.5258
701.6633 830.8514
702.1454 818.8304
702.6276 812.1373
703.1097 806.4381
703.5918 797.1360
704.0739 787.0258
704.5560 785.7310
705.0381 804.0234
705.5203 814.1300
706.0024 781.7504
706.4845 718.2483
706.9666 650.8671
707.4487 583.5662
707.9308 531.6365
708.4130 509.9916
708.8951 511.8267
709.3772 501.4321
709.8593 470.0063
710.3414 438.8104
710.8235 405.9952
711.3057 376.2195
711.7878 355.0849
712.2699 339.7611
712.7520 321.5382
713.2341 295.0214
713.7162 266.4425
714.1984 241.4208
714.6805 220.3918
715.1626 205.5500
715.6447 197.7521
716.1268 190.9503
716.6089 180.5853
717.0911 167.0587
717.5732 153.7542
718.0553 136.1406
718.5374 121.2239
719.0195 116.4163
719.5016 114.7809
719.9838 109.7151
720.4659 99.97498
720.9480 85.76971
721.4301 65.63605
721.9122 44.78540
722.3943 27.42999
722.8765 14.26697
723.3586 9.075928
723.8407 12.96265
724.3228 20.03143
724.8049 26.13696
725.2870 30.74554
725.7692 28.18848
726.2513 15.97949
726.7334 8.212036
727.2155 6.159729
727.6976 8.352051
728.1797 21.14001
728.6619 38.77148
729.1440 42.92279
729.6261 16.51965
730.1082 14.00537
730.5903 17.16418
731.0724 1.770996
731.5546 7.026123
732.0367 4.066467
732.5188 2.325012
733.0009 5.397461
733.4830 5.546265
733.9651 5.809509
734.4473 9.773743
734.9294 7.496460
735.4115 9.606079
735.8936 26.26123
736.3757 31.04077
736.8578 26.47711
737.3400 22.70490
737.8221 22.27277
738.3042 26.17883
738.7863 38.39612
739.2684 54.86053
739.7505 67.43433
740.2327 74.73315
740.7148 77.96582
741.1969 76.98462
741.6790 74.21552
742.1611 81.91187
742.6432 108.2954
743.1254 125.9954
743.6075 127.4980
744.0896 123.1688
744.5717 114.3618
745.0538 104.4429
745.5359 102.7408
746.0181 115.8286
746.5002 130.5925
746.9823 138.1398
747.4644 142.7645
747.9465 152.2000
748.4286 166.0914
748.9108 175.9161
749.3929 175.4019
749.8750 168.5774
750.3571 166.7490
750.8392 171.2907
751.3214 173.7823
751.8035 167.2701
752.2856 166.9788
752.7677 192.2841
753.2498 230.2513
753.7319 250.1951
754.2141 238.8866
754.6962 228.9139
755.1783 238.3730
755.6604 249.9673
756.1425 243.8973
756.6246 223.6455
757.1068 205.6694
757.5889 198.8492
758.0710 198.4296
758.5531 193.2521
759.0352 183.6141
759.5173 195.8249
759.9995 242.7739
760.4816 277.6892
760.9637 270.6837
761.4458 233.1306
761.9279 191.3578
762.4100 130.5836
762.8922 101.2355
763.3743 139.4667
763.8564 182.2140
764.3385 185.7727
764.8206 165.7554
765.3027 156.6967
765.7849 171.5249
766.2670 194.4626
766.7491 216.6486
767.2312 233.1516
767.7133 221.5106
768.1954 180.3989
768.6776 147.9249
769.1597 142.6590
769.6418 154.2259
770.1239 166.3102
770.6060 181.8881
771.0881 186.6782
771.5703 169.7957
772.0524 155.3842
772.5345 150.3298
773.0166 151.8445
773.4987 156.3582
773.9808 163.2196
774.4630 173.7334
774.9451 196.9591
775.4272 220.1280
775.9093 222.0705
776.3914 205.7816
776.8735 188.4558
777.3557 175.5310
777.8378 168.9420
778.3199 172.3915
778.8020 185.1885
779.2841 192.8649
779.7662 196.7894
780.2484 192.2501
780.7305 170.4633
781.2126 145.8737
781.6947 127.0231
782.1768 115.0497
782.6589 116.3109
783.1411 153.5464
783.6232 180.2372
784.1053 161.1889
784.5874 124.3636
785.0695 105.6680
785.5516 108.1946
786.0338 113.5850
786.5159 108.7457
786.9980 98.42529
787.4801 92.28955
787.9622 90.17072
788.4443 91.79059
788.9265 98.67572
789.4086 104.3939
789.8907 104.6513
790.3728 99.49786
790.8549 88.75177
791.3370 60.35120
791.8192 44.83539
792.3013 53.44836
792.7834 66.41046
793.2655 74.34686
793.7476 77.33234
794.2297 75.64282
794.7119 68.04047
795.1940 60.12323
795.6761 54.67340
796.1582 52.62958
796.6403 57.84137
797.1224 69.32928
797.6046 77.79559
798.0867 78.40680
798.5688 78.50012
799.0509 93.42938
799.5330 128.2939
800.0151 140.2805
800.4973 115.6658
800.9794 90.17993
801.4615 70.99402
801.9436 61.19659
802.4257 66.95544
802.9078 89.25562
803.3900 111.8400
803.8721 136.9605
804.3542 152.9706
804.8363 142.7549
805.3184 123.5316
805.8005 127.6680
806.2827 156.6081
806.7648 173.5215
807.2469 139.3486
807.7290 81.47925
808.2111 74.42664
808.6932 116.1245
809.1754 134.8007
809.6575 109.7106
810.1396 80.09991
810.6217 81.14484
811.1038 107.6876
811.5859 123.2532
812.0681 117.5829
812.5502 115.9088
813.0323 128.7861
813.5144 137.7734
813.9965 125.8483
814.4786 101.0504
814.9608 83.41394
815.4429 80.84961
815.9250 80.13849
816.4071 71.36194
816.8892 59.85431
817.3713 54.15576
817.8535 52.80463
818.3356 45.78412
818.8177 28.35809
819.2998 11.24255
819.7819 13.06006
820.2640 33.89288
820.7462 46.52533
821.2283 50.51672
821.7104 45.91138
822.1925 27.39514
822.6746 6.999695
823.1567 3.287231
823.6389 18.48297
824.1210 25.62445
824.6031 16.89630
825.0852 8.713440
825.5673 5.552307
826.0494 5.877625
826.5316 9.549255
827.0137 15.87061
827.4958 20.57324
827.9779 20.71838
828.4600 19.57349
828.9421 19.93158
829.4243 21.67609
829.9064 26.33887
830.3885 33.39313
830.8706 35.66327
831.3527 27.93945
831.8348 13.33289
832.3170 2.928040
832.7991 24.49890
833.2812 27.86768
833.7633 0.6853030
834.2454 24.37653
834.7275 29.01959
835.2097 21.12823
835.6918 15.17407
836.1739 10.94275
836.6560 9.760864
837.1381 11.55774
837.6202 16.72095
838.1024 31.67950
838.5845 47.18079
839.0666 48.35571
839.5487 33.58063
840.0308 18.17072
840.5129 14.90643
840.9951 16.74768
841.4772 11.76776
841.9593 2.498474
842.4414 1.028625
842.9235 3.424377
843.4056 8.313843
843.8878 7.079834
844.3699 1.288513
844.8520 3.948425
845.3341 11.08136
845.8162 7.429260
846.2983 18.21606
846.7805 40.32892
847.2626 37.81238
847.7447 21.04956
848.2268 14.88147
848.7089 26.15826
849.1910 31.81580
849.6732 24.80621
850.1553 13.90100
850.6374 1.924316
851.1195 15.55945
851.6016 14.16718
852.0837 4.804749
852.5659 25.11060
853.0480 36.72778
853.5301 40.27368
854.0122 33.51636
854.4943 19.27789
854.9764 6.607239
855.4586 1.910645
855.9407 7.307678
856.4228 10.61597
856.9049 11.45239
857.3870 7.291687
857.8691 3.260803
858.3513 13.23004
858.8334 24.17645
859.3155 29.63574
859.7976 20.39978
860.2797 2.723267
860.7618 2.258301
861.2440 15.63239
861.7261 23.93567
862.2082 12.98767
862.6903 1.745483
863.1724 18.56976
863.6545 30.84320
864.1367 26.08020
864.6188 1.955750
865.1009 20.19421
865.5830 22.19336
866.0651 18.14984
866.5472 28.98798
867.0294 46.55774
867.5115 46.04541
867.9936 23.31885
868.4757 2.129517
868.9578 4.694885
869.4399 21.53046
869.9221 20.98291
870.4042 1.559326
870.8863 9.147888
871.3684 5.644287
871.8505 2.672302
872.3326 10.62683
872.8148 18.24347
873.2969 25.91644
873.7790 37.04749
874.2611 40.61121
874.7432 30.49304
875.2253 20.37164
875.7075 15.60492
876.1896 13.63452
876.6717 11.20807
877.1538 7.871033
877.6359 4.322937
878.1180 2.000916
878.6002 5.453674
879.0823 1.257446
879.5644 11.72693
880.0465 16.02618
880.5286 13.35608
881.0107 9.624207
881.4929 8.423950
881.9750 9.348877
882.4571 14.38745
882.9392 21.38379
883.4213 17.99200
883.9034 3.045105
884.3856 7.456116
884.8677 4.412048
885.3498 7.595154
885.8319 21.26453
886.3140 38.26001
886.7961 45.28613
887.2783 37.37250
887.7604 29.39337
888.2425 24.86969
888.7246 23.72278
889.2067 27.33478
889.6888 35.28717
890.1710 39.98981
890.6531 31.09772
891.1352 30.63293
891.6173 57.30988
892.0994 85.66730
892.5815 95.49548
893.0637 89.15326
893.5458 76.77136
894.0279 59.62604
894.5100 48.09534
894.9921 53.97327
895.4742 67.49707
895.9564 77.86316
896.4385 83.96808
896.9206 85.76807
897.4027 83.24750
897.8848 76.06262
898.3669 60.36084
898.8491 41.17371
899.3312 39.24207
899.8133 54.37878
900.2954 68.39551
900.7775 77.96729
901.2596 82.70337
901.7418 80.18622
902.2239 73.88940
902.7060 81.18964
903.1881 115.4192
903.6702 130.1619
904.1523 110.0859
904.6345 88.47675
905.1166 78.00775
905.5987 77.39746
906.0808 88.32379
906.5629 113.7290
907.0450 130.5399
907.5272 132.2556
908.0093 127.3854
908.4914 113.2592
908.9735 97.64417
909.4556 91.12909
909.9377 94.29236
910.4199 97.99359
910.9020 98.34119
911.3841 96.89496
911.8662 92.81989
912.3483 88.95862
912.8304 90.25397
913.3126 96.02472
913.7947 104.2841
914.2768 114.2562
914.7589 119.9684
915.2410 109.9675
915.7231 88.88074
916.2053 75.92072
916.6874 71.06555
917.1695 75.16479
917.6516 89.65631
918.1337 106.3175
918.6158 118.7408
919.0980 126.9892
919.5801 124.1969
920.0622 101.8851
920.5443 92.98145
921.0264 112.7989
921.5085 127.3256
921.9907 110.9437
922.4728 80.51587
922.9549 67.43042
923.4370 74.11267
923.9191 85.38336
924.4012 110.6278
924.8834 127.5305
925.3655 119.0939
925.8476 103.5645
926.3297 99.94635
926.8118 109.4182
927.2939 121.5955
927.7761 137.4752
928.2582 145.6758
928.7403 127.3530
929.2224 105.7928
929.7045 111.7079
930.1866 138.6398
930.6688 162.6341
931.1509 173.7063
931.6330 174.3326
932.1151 157.4084
932.5972 135.9224
933.0793 144.2383
933.5615 175.9414
934.0436 197.7120
934.5257 200.5348
935.0078 193.9246
935.4899 184.8068
935.9720 175.0696
936.4542 172.5039
936.9363 178.2489
937.4184 185.2585
937.9005 193.7335
938.3826 198.5484
938.8647 196.3467
939.3469 189.5084
939.8290 180.3777
940.3111 165.8998
940.7932 169.1672
941.2753 210.7122
941.7574 237.8331
942.2396 227.0656
942.7217 206.4868
943.2038 195.2355
943.6859 192.1478
944.1680 192.1821
944.6501 195.5965
945.1323 200.6849
945.6144 209.9976
946.0965 218.0146
946.5786 222.0338
947.0607 222.0003
947.5428 216.2834
948.0250 204.8417
948.5071 197.5201
948.9892 198.5446
949.4713 206.7621
949.9534 231.7431
950.4355 257.9407
950.9177 258.4388
951.3998 235.1989
951.8819 213.4978
952.3640 207.5728
952.8461 206.4926
953.3282 199.1545
953.8104 185.6952
954.2925 159.5698
954.7746 125.4357
955.2567 112.3434
955.7388 130.3690
956.2209 156.2634
956.7031 166.8532
957.1852 164.0192
957.6673 152.0101
958.1494 130.6853
958.6315 114.9702
959.1136 107.7496
959.5958 103.5331
960.0779 99.47363
960.5600 94.97406
961.0421 89.17828
961.5242 81.30231
962.0063 77.65417
962.4885 82.31409
962.9706 82.34174
963.4527 67.92841
963.9348 51.90863
964.4169 50.35510
964.8990 61.72546
965.3812 65.34406
965.8633 49.72913
966.3454 40.64819
966.8275 49.71680
967.3096 55.51105
967.7917 41.36041
968.2739 19.52771
968.7560 9.161926
969.2381 13.06647
969.7202 20.74371
970.2023 31.64978
970.6844 42.59332
971.1666 55.59119
971.6487 65.36823
972.1308 62.60333
972.6129 51.45221
973.0950 47.16241
973.5771 56.50604
974.0593 67.38629
974.5414 70.01306
975.0235 71.78052
975.5056 81.18121
975.9877 93.27411
976.4698 97.55060
976.9520 92.92145
977.4341 91.06903
977.9162 103.1264
978.3983 118.0875
978.8804 115.5607
979.3625 104.1859
979.8447 107.6599
980.3268 125.9315
980.8089 142.5528
981.2910 149.8371
981.7731 149.4526
982.2552 140.8411
982.7374 126.7206
983.2195 119.3975
983.7016 118.7156
984.1837 122.6009
984.6658 130.8451
985.1479 139.1494
985.6301 143.4379
986.1122 147.5721
986.5943 164.6289
987.0764 197.8184
987.5585 214.1494
988.0406 209.1842
988.5228 203.8209
989.0049 203.0390
989.4870 206.7183
989.9691 215.5197
990.4512 228.1881
990.9333 229.0748
991.4155 213.8298
991.8976 196.4744
992.3797 173.6337
992.8618 154.9309
993.3439 147.4393
993.8260 146.2463
994.3082 143.3179
994.7903 139.0614
995.2724 130.7764
995.7545 108.8497
996.2366 95.78821
996.7188 105.1997
997.2009 117.5708
997.6830 117.9943
998.1651 109.0724
998.6472 99.71765
999.1293 90.50018
999.6115 83.22888
1000.094 81.63190
1000.576 78.36450
1001.058 68.15094
1001.540 54.95514
1002.022 41.10754
1002.504 28.53851
1002.986 24.05914
1003.468 35.64020
1003.951 46.03668
1004.433 44.89264
1004.915 39.26123
1005.397 34.07935
1005.879 30.01239
1006.361 27.63892
1006.843 26.87762
1007.325 25.25330
1007.807 19.95520
1008.290 14.26550
1008.772 9.166138
1009.254 6.897766
1009.736 15.70636
1010.218 30.89581
1010.700 32.88690
1011.182 12.66235
1011.664 6.638489
1012.146 4.557617
1012.629 27.79877
1013.111 32.82697
1013.593 24.21179
1014.075 13.25452
1014.557 3.607727
1015.039 0.5686650
1015.521 8.639954
1016.003 18.64594
1016.486 13.51129
1016.968 0.9607540
1017.450 6.224670
1017.932 2.300720
1018.414 7.367554
1018.896 21.28809
1019.378 27.24713
1019.860 11.47223
1020.342 13.86200
1020.825 11.89154
1021.307 13.50348
1021.789 15.72070
1022.271 9.528137
1022.753 24.05072
1023.235 10.22314
1023.717 11.59595
1024.199 16.10077
1024.682 6.344788
1025.164 0.7536010
1025.646 0.3242800
1026.128 1.456543
1026.610 3.461243
1027.092 4.907166
1027.574 5.394775
1028.056 3.603882
1028.538 4.274231
1029.021 18.67389
1029.503 19.91394
1029.985 2.508667
1030.467 4.855225
1030.949 9.317688
1031.431 20.13025
1031.913 6.574463
1032.395 20.09650
1032.877 30.18323
1033.360 20.29205
1033.842 8.791992
1034.324 6.172913
1034.806 18.99896
1035.288 30.25409
1035.770 35.39087
1036.252 27.19836
1036.734 9.821167
1037.217 1.623779
1037.699 8.025513
1038.181 11.53510
1038.663 8.034790
1039.145 8.047302
1039.627 20.38763
1040.109 33.54462
1040.591 31.89124
1041.073 17.59119
1041.556 15.22333
1042.038 40.70758
1042.520 53.36285
1043.002 41.05872
1043.484 28.57739
1043.966 31.55023
1044.448 37.10645
1044.930 23.17596
1045.412 10.64642
1045.895 22.86060
1046.377 9.411194
1046.859 34.04285
1047.341 44.64032
1047.823 44.47479
1048.305 24.63171
1048.787 0.1658940
1049.269 4.443909
1049.752 13.97906
1050.234 34.40741
1050.716 63.80621
1051.198 80.91180
1051.680 72.76343
1052.162 57.78961
1052.644 45.90649
1053.126 37.99774
1053.609 35.02399
1054.091 38.01691
1054.573 38.46844
1055.055 24.63763
1055.537 20.46326
1056.019 45.58386
1056.501 74.83771
1056.983 85.45520
1057.465 82.43451
1057.948 84.04712
1058.430 96.65192
1058.912 99.17615
1059.394 68.65509
1059.876 46.64154
1060.358 62.47198
1060.840 88.63312
1061.322 97.44019
1061.804 91.44867
1062.287 88.14862
1062.769 93.76569
1063.251 95.18127
1063.733 80.15009
1064.215 68.07220
1064.697 75.26996
1065.179 87.56146
1065.661 85.18054
1066.144 71.94049
1066.626 71.04126
1067.108 95.01508
1067.590 114.9740
1068.072 118.6342
1068.554 115.0712
1069.036 101.0607
1069.518 88.90277
1070.000 98.56812
1070.483 126.3932
1070.965 146.9567
1071.447 150.8687
1071.929 148.3857
1072.411 132.2148
1072.893 123.6952
1073.375 148.3375
1073.857 184.0408
1074.339 200.7094
1074.822 196.2214
1075.304 186.3001
1075.786 171.8073
1076.268 164.6045
1076.750 172.7744
1077.232 187.6353
1077.714 212.2300
1078.197 233.6060
1078.679 228.9164
1079.161 201.1335
1079.643 186.8567
1080.125 210.2572
1080.607 229.4727
1081.089 225.2017
1081.571 211.4971
1082.053 191.1455
1082.536 172.3113
1083.018 166.8356
1083.500 175.1686
1083.982 186.6517
1084.464 203.2705
1084.946 211.6546
1085.428 202.5889
1085.910 186.0752
1086.392 162.6019
1086.875 140.4261
1087.357 132.0700
1087.839 138.3718
1088.321 147.4387
1088.803 160.1072
1089.285 167.3729
1089.767 164.5873
1090.249 155.0696
1090.732 136.4794
1091.214 118.0894
1091.696 114.4612
1092.178 125.5549
1092.660 129.5431
1093.142 110.0501
1093.624 95.59662
1094.106 97.93237
1094.589 108.0844
1095.071 126.7242
1095.553 145.4342
1096.035 152.4256
1096.517 146.6550
1096.999 135.1913
1097.481 112.6728
1097.963 95.75531
1098.445 90.87457
1098.927 92.44482
1099.410 98.08881
1099.892 106.5377
1100.374 116.8869
1100.856 128.5782
1101.338 137.6616
1101.820 143.4581
1102.302 145.9742
1102.784 145.9836
1103.267 142.8622
1103.749 134.6360
1104.231 125.4245
1104.713 113.9445
1105.195 101.2262
1105.677 98.71655
1106.159 114.7944
1106.641 132.6394
1107.124 159.7177
1107.606 177.8193
1108.088 167.9854
1108.570 149.0131
1109.052 148.7618
1109.534 165.9617
1110.016 167.2548
1110.498 134.2164
1110.980 110.5603
1111.463 109.8339
1111.945 105.6862
1112.427 75.08917
1112.909 44.25885
1113.391 49.97083
1113.873 88.39929
1114.355 109.6252
1114.837 100.4932
1115.319 95.69049
1115.802 97.05151
1116.284 100.8221
1116.766 113.0551
1117.248 119.9037
1117.730 99.90521
1118.212 59.88831
1118.694 46.52832
1119.176 76.77502
1119.659 94.41412
1120.141 92.36688
1120.623 90.57800
1121.105 97.27704
1121.587 104.9445
1122.069 106.0978
1122.551 100.3879
1123.033 95.83081
1123.516 93.94061
1123.998 89.34528
1124.480 79.40021
1124.962 75.69611
1125.444 85.42822
1125.926 92.15558
1126.408 78.14429
1126.890 54.74219
1127.372 59.25098
1127.854 97.57544
1128.337 115.6571
1128.819 111.1013
1129.301 99.34265
1129.783 82.73956
1130.265 71.53595
1130.747 71.45605
1131.229 92.60577
1131.711 103.1826
1132.194 103.7482
1132.676 64.35199
1133.158 76.56763
1133.640 68.09894
1134.122 58.78259
1134.604 78.25983
1135.086 44.67542
1135.568 63.69861
1136.051 61.71399
1136.533 69.34979
1137.015 50.96338
1137.497 61.20392
1137.979 64.57928
1138.461 60.49500
1138.943 55.48718
1139.425 52.90289
1139.907 50.19812
1140.390 44.44598
1140.872 35.68768
1141.354 20.20276
1141.836 3.344788
1142.318 2.487793
1142.800 15.86133
1143.282 27.39685
1143.764 30.72369
1144.246 30.42999
1144.729 30.25067
1145.211 29.19788
1145.693 24.57849
1146.175 18.86316
1146.657 17.80670
1147.139 19.28357
1147.621 14.62335
1148.103 2.870850
1148.586 2.451355
1149.068 10.24945
1149.550 25.62939
1150.032 33.59064
1150.514 36.47748
1150.996 36.48553
1151.478 33.34387
1151.960 22.79419
1152.443 6.846130
1152.925 8.5387997E-02
1153.407 11.82367
1153.889 25.50116
1154.371 41.22870
1154.853 47.70709
1155.335 25.87750
1155.817 1.215942
1156.299 5.095642
1156.781 12.02008
1157.264 30.72675
1157.746 51.70764
1158.228 61.73077
1158.710 55.65851
1159.192 41.68225
1159.674 9.583252
1160.156 17.73022
1160.638 20.12939
1161.121 3.203247
1161.603 19.84332
1162.085 56.44446
1162.567 63.01276
1163.049 12.90662
1163.531 16.82159
1164.013 4.561157
1164.495 18.22479
1164.978 36.98706
1165.460 50.64972
1165.942 57.01459
1166.424 57.33130
1166.906 43.33136
1167.388 9.795227
1167.870 10.89398
1168.352 14.44977
1168.834 5.382996
1169.317 17.39716
1169.799 37.92633
1170.281 36.31097
1170.763 18.86658
1171.245 8.085938
1171.727 3.689880
1172.209 2.372559
1172.691 3.837463
1173.173 7.389404
1173.656 12.77130
1174.138 18.23645
1174.620 22.69202
1175.102 25.21411
1175.584 20.89868
1176.066 14.86005
1176.548 23.88757
1177.030 41.66888
1177.513 48.41400
1177.995 40.98340
1178.477 24.15894
1178.959 1.205933
1179.441 17.75293
1179.923 0.8052370
1180.405 24.95239
1180.887 33.81610
1181.370 33.28131
1181.852 32.01544
1182.334 32.46924
1182.816 39.02191
1183.298 52.79193
1183.780 58.10913
1184.262 34.38690
1184.744 17.23352
1185.226 31.49652
1185.708 51.58856
1186.191 61.70709
1186.673 62.23071
1187.155 50.88397
1187.637 29.63971
1188.119 22.10406
1188.601 45.51038
1189.083 60.72974
1189.565 58.53882
1190.048 54.58923
1190.530 54.61658
1191.012 55.21460
1191.494 53.33057
1191.976 49.43787
1192.458 44.33026
1192.940 35.46356
1193.422 38.92554
1193.905 60.76263
1194.387 72.73877
1194.869 66.35474
1195.351 58.67889
1195.833 61.81232
1196.315 65.39703
1196.797 48.83771
1197.279 17.77576
1197.761 11.84314
1198.244 28.58154
1198.726 36.73584
1199.208 33.44983
1199.690 33.83307
1200.172 43.85712
1200.654 58.39319
1201.136 76.23700
1201.618 87.34558
1202.100 64.70801
1202.583 28.77539
1203.065 20.58759
1203.547 33.93683
1204.029 52.14935
1204.511 67.66809
1204.993 66.07410
1205.475 35.24249
1205.957 9.858704
1206.440 21.83929
1206.922 41.63873
1207.404 48.73383
1207.886 47.76904
1208.368 43.95490
1208.850 39.33765
1209.332 37.29327
1209.814 38.90833
1210.297 37.11572
1210.779 19.91351
1211.261 14.19177
1211.743 40.19031
1212.225 64.22333
1212.707 63.36212
1213.189 50.56201
1213.671 39.69275
1214.153 31.39130
1214.635 33.51605
1215.118 53.18677
1215.600 55.40265
1216.082 31.27588
1216.564 21.69562
1217.046 43.14911
1217.528 62.72821
1218.010 52.83386
1218.492 28.96063
1218.975 20.28973
1219.457 23.94623
1219.939 25.28430
1220.421 24.21649
1220.903 19.83472
1221.385 10.96558
1221.867 1.997925
1222.349 19.35309
1222.832 25.37054
1223.314 3.004456
1223.796 36.95325
1224.278 32.90582
1224.760 14.12695
1225.242 11.94080
1225.724 21.93732
1226.206 35.01904
1226.688 48.48322
1227.171 59.13452
1227.653 65.63019
1228.135 66.36481
1228.617 56.72754
1229.099 45.50494
1229.581 32.08691
1230.063 23.82104
1230.545 32.68689
1231.027 50.30115
1231.510 54.70447
1231.992 42.22449
1232.474 38.65247
1232.956 51.83881
1233.438 57.12354
1233.920 46.12549
1234.402 37.49042
1234.884 35.22650
1235.367 39.45642
1235.849 53.28406
1236.331 70.66656
1236.813 69.90308
1237.295 52.42926
1237.777 43.36578
1238.259 42.64789
1238.741 43.04517
1239.224 42.93719
1239.706 45.25610
1240.188 51.78107
1240.670 55.09534
1241.152 40.88312
1241.634 24.47461
1242.116 34.58313
1242.598 53.85419
1243.080 53.10388
1243.563 39.16565
1244.045 29.90656
1244.527 29.53210
1245.009 33.30927
1245.491 40.68140
1245.973 48.24792
1246.455 56.75342
1246.937 62.92206
1247.419 62.70758
1247.902 61.65009
1248.384 65.81409
1248.866 71.41492
1249.348 65.76654
1249.830 45.37018
1250.312 44.14490
1250.794 72.61560
1251.276 87.24774
1251.759 79.26129
1252.241 70.96667
1252.723 72.19122
1253.205 74.57819
1253.687 68.09418
1254.169 57.70483
1254.651 54.95734
1255.133 57.81396
1255.615 62.65631
1256.098 76.59436
1256.580 69.01581
1257.062 41.00635
1257.544 30.20862
1258.026 53.41724
1258.508 75.86194
1258.990 61.36102
1259.472 39.70410
1259.954 34.16901
1260.437 39.00183
1260.919 57.68738
1261.401 77.62091
1261.883 72.66827
1262.365 46.13892
1262.847 40.45551
1263.329 85.20959
1263.811 100.2355
1264.294 37.64691
1264.776 1.214600
1265.258 21.09985
1265.740 53.22302
1266.222 64.94244
1266.704 62.55255
1267.186 55.34497
1267.668 43.55774
1268.151 29.92017
1268.633 14.41547
1269.115 0.2624510
1269.597 11.60315
1270.079 6.479370
1270.561 19.01831
1271.043 45.81409
1271.525 61.35748
1272.007 67.50104
1272.490 59.01385
1272.972 48.52161
1273.454 58.64154
1273.936 75.61646
1274.418 76.22473
1274.900 65.37341
1275.382 62.34125
1275.864 70.68445
1276.346 74.28925
1276.829 62.75146
1277.311 52.27191
1277.793 34.42084
1278.275 27.80853
1278.757 52.78693
1279.239 68.15765
1279.721 64.84222
1280.203 44.23853
1280.686 32.64636
1281.168 30.06421
1281.650 34.24060
1282.132 46.25403
1282.614 49.05450
1283.096 40.54651
1283.578 31.96930
1284.060 28.87653
1284.542 23.83789
1285.025 9.991394
1285.507 1.049744
1285.989 15.86255
1286.471 39.85620
1286.953 26.38977
1287.435 2.905945
1287.917 0.0000000E+00
