#Shining_header
#Data type:raman_database
#CAS:Not entered
#Material scientific name:Anglesite
#Manufacturer:Not entered
#Laser model:Not entered
#Spectrometer model:Not entered
#Testing unit:Not entered
#Test time:Not entered
#Other experimental details:Not entered
#Shining_data
112.8305 0.0000000E+00
113.3126 1.879639
113.7947 0.1104130
114.2769 0.9084470
114.7590 0.1345210
115.2411 2.132019
115.7232 6.106140
116.2053 11.40375
116.6874 17.07397
117.1695 22.14581
117.6517 26.14337
118.1338 31.30676
118.6159 37.78320
119.0980 45.15320
119.5801 53.28833
120.0622 62.15875
120.5444 71.31964
121.0265 79.91528
121.5086 87.87134
121.9907 96.69574
122.4728 107.1771
122.9549 118.8242
123.4371 130.4119
123.9192 141.4637
124.4013 152.5507
124.8834 164.1942
125.3655 176.4128
125.8476 188.8388
126.3298 201.3402
126.8119 213.9020
127.2940 226.2079
127.7761 238.3701
128.2582 250.1703
128.7404 261.2309
129.2225 271.4595
129.7046 281.4241
130.1867 292.4037
130.6688 305.7347
131.1509 317.3826
131.6331 327.0462
132.1152 335.0141
132.5973 341.6796
133.0794 347.2222
133.5615 351.4716
134.0436 353.6324
134.5258 352.8214
135.0079 350.6771
135.4900 347.0172
135.9721 342.1547
136.4542 336.6003
136.9363 330.7387
137.4184 324.4543
137.9006 316.5674
138.3827 305.5431
138.8648 294.6229
139.3469 285.5174
139.8290 278.1817
140.3111 271.2554
140.7933 263.6269
141.2754 255.8005
141.7575 250.7508
142.2396 248.3866
142.7217 247.0378
143.2038 245.3961
143.6860 243.2321
144.1681 241.7477
144.6502 242.9243
145.1323 246.0640
145.6144 249.5237
146.0965 252.3173
146.5787 255.0558
147.0608 258.3316
147.5429 262.0803
148.0250 266.2832
148.5071 270.0744
148.9892 273.2530
149.4714 276.3499
149.9535 279.5798
150.4356 283.0655
150.9177 284.3974
151.3998 283.6323
151.8819 280.5908
152.3641 274.5100
152.8462 265.6440
153.3283 255.1780
153.8104 244.2987
154.2925 233.4391
154.7746 220.8951
155.2568 205.8357
155.7389 190.0617
156.2210 174.2617
156.7031 158.8428
157.1852 144.2665
157.6673 131.4675
158.1495 121.6091
158.6316 112.0145
159.1137 102.2922
159.5958 92.98447
160.0779 84.57587
160.5600 77.17209
161.0422 70.73206
161.5243 65.29037
162.0064 61.23706
162.4885 57.10373
162.9706 52.22751
163.4527 47.04355
163.9349 42.53143
164.4170 39.26199
164.8991 36.55389
165.3812 32.95392
165.8633 28.04837
166.3454 23.52234
166.8276 20.68106
167.3097 19.27921
167.7918 17.40909
168.2739 14.26321
168.7560 10.34271
169.2381 6.110016
169.7203 1.408295
170.2024 2.896271
170.6845 5.381378
171.1666 6.383850
171.6487 6.861267
172.1308 6.714050
172.6130 6.333160
173.0951 6.036194
173.5772 5.927734
174.0593 5.883911
174.5414 5.651611
175.0235 4.999115
175.5057 4.659210
175.9878 5.023148
176.4699 5.605743
176.9520 6.038940
177.4341 6.155533
177.9162 5.949570
178.3984 5.400375
178.8805 3.891998
179.3626 2.837433
179.8447 2.832748
180.3268 3.252472
180.8089 3.254471
181.2911 2.320908
181.7732 0.7144620
182.2553 1.5976001E-02
182.7374 1.388107
183.2195 2.288696
183.7016 1.790573
184.1838 0.4541320
184.6659 0.6462710
185.1480 0.8017120
185.6301 0.1408230
186.1122 3.7292000E-02
186.5943 0.6554260
187.0765 1.517807
187.5586 2.624924
188.0407 3.872711
188.5228 4.955490
189.0049 5.668350
189.4870 6.028259
189.9692 6.291336
190.4513 6.319595
190.9334 6.367065
191.4155 6.669128
191.8976 7.211441
192.3797 7.638763
192.8619 7.584869
193.3440 7.270172
193.8261 7.323151
194.3082 7.995712
194.7903 8.939957
195.2724 9.938766
195.7546 11.05418
196.2367 11.85628
196.7188 11.57782
197.2009 10.89392
197.6830 10.75185
198.1651 11.73836
198.6473 13.21207
199.1294 13.92949
199.6115 13.45782
200.0936 13.31671
200.5757 14.58752
201.0578 16.47977
201.5400 17.99489
202.0221 18.58179
202.5042 18.54803
202.9863 18.79578
203.4684 19.53354
203.9505 20.24466
204.4327 20.85385
204.9148 21.31462
205.3969 21.51512
205.8790 21.31110
206.3611 20.84512
206.8432 20.83522
207.3254 21.88396
207.8075 22.68504
208.2896 22.59763
208.7717 22.15168
209.2538 22.20030
209.7359 23.36848
210.2181 25.46435
210.7002 26.71155
211.1823 26.14220
211.6644 25.67339
212.1465 25.64968
212.6286 25.98593
213.1108 26.52303
213.5929 27.18871
214.0750 27.94967
214.5571 28.32843
215.0392 27.73638
215.5213 27.41498
216.0035 27.86018
216.4856 28.85892
216.9677 29.97970
217.4498 30.98721
217.9319 31.85722
218.4140 32.19035
218.8961 31.88103
219.3783 31.29460
219.8604 30.27390
220.3425 29.02844
220.8246 28.16492
221.3067 28.15228
221.7888 28.84499
222.2710 29.10799
222.7531 28.64520
223.2352 28.07267
223.7173 27.64024
224.1994 27.34759
224.6815 27.15655
225.1637 27.09603
225.6458 27.10580
226.1279 26.95583
226.6100 26.42691
227.0921 25.91547
227.5742 25.72197
228.0564 25.64372
228.5385 25.36581
229.0206 24.72779
229.5027 23.88646
229.9848 23.18640
230.4669 22.70860
230.9491 22.31081
231.4312 21.89354
231.9133 21.45028
232.3954 20.93892
232.8775 20.27792
233.3596 19.58575
233.8418 19.01312
234.3239 18.60882
234.8060 18.23199
235.2881 17.73335
235.7702 17.11876
236.2523 16.53652
236.7345 16.04845
237.2166 15.68476
237.6987 15.49798
238.1808 15.52991
238.6629 15.53864
239.1451 15.17062
239.6272 14.35059
240.1093 13.76250
240.5914 13.67010
241.0735 13.70061
241.5556 13.70059
242.0378 13.66515
242.5199 13.62669
243.0020 13.59820
243.4841 13.56667
243.9662 13.40615
244.4483 12.97263
244.9305 12.55038
245.4126 12.34486
245.8947 12.39007
246.3768 12.51082
246.8589 12.45695
247.3410 12.14779
247.8232 11.88669
248.3053 11.60890
248.7874 11.43106
249.2695 11.53909
249.7516 11.92752
250.2337 12.32240
250.7159 12.27858
251.1980 11.48302
251.6801 11.09965
252.1622 11.51674
252.6443 12.03142
253.1264 12.26112
253.6086 12.15031
254.0907 11.85102
254.5728 11.51476
255.0549 11.04121
255.5370 10.84033
256.0191 11.22099
256.5013 11.59502
256.9834 11.62222
257.4655 11.28196
257.9476 10.77213
258.4297 10.28150
258.9118 9.734550
259.3940 9.561096
259.8761 9.978943
260.3582 10.47990
260.8403 10.87995
261.3224 11.13890
261.8045 11.23965
262.2867 11.13265
262.7688 10.75945
263.2509 10.58938
263.7330 10.65779
264.2151 10.84260
264.6972 11.22266
265.1794 11.71027
265.6615 12.04380
266.1436 11.98829
266.6257 11.52076
267.1078 11.10435
267.5899 10.67244
268.0721 10.34457
268.5542 10.20638
269.0363 10.21013
269.5184 10.24012
270.0005 10.22093
270.4826 10.15838
270.9648 10.13056
271.4469 10.19559
271.9290 10.22683
272.4111 10.13500
272.8932 9.963165
273.3753 9.827393
273.8575 9.802013
274.3396 9.869659
274.8217 9.930561
275.3038 10.04245
275.7859 10.08587
276.2680 10.03069
276.7502 9.876385
277.2323 9.585144
277.7144 9.100044
278.1965 8.534851
278.6786 8.264988
279.1607 8.425961
279.6429 8.573746
280.1250 8.633270
280.6071 8.587448
281.0892 8.369579
281.5713 7.920109
282.0534 7.392708
282.5356 7.120583
283.0177 7.173561
283.4998 7.177402
283.9819 7.030643
284.4640 6.780174
284.9461 6.472519
285.4283 6.107357
285.9104 5.766720
286.3925 5.604546
286.8746 5.640984
287.3567 5.584263
287.8388 5.242168
288.3210 4.828144
288.8031 4.659767
289.2852 4.809967
289.7673 5.024204
290.2494 5.044491
290.7315 4.878819
291.2137 4.631630
291.6958 4.128128
292.1779 3.651680
292.6600 3.621689
293.1421 4.089664
293.6242 4.505901
294.1064 4.370831
294.5885 3.772984
295.0706 3.248634
295.5527 2.805080
296.0348 2.485817
296.5169 2.360962
296.9991 2.425961
297.4812 2.552536
297.9633 2.725639
298.4454 2.890118
298.9275 2.891239
299.4096 2.585552
299.8918 2.258739
300.3739 2.136242
300.8560 2.194172
301.3381 2.266899
301.8202 2.312977
302.3023 2.341732
302.7845 2.358341
303.2666 2.295971
303.7487 2.291615
304.2308 2.328709
304.7129 2.454533
305.1950 2.998833
305.6772 4.395264
306.1593 5.782925
306.6414 5.788975
307.1235 4.316040
307.6056 2.906738
308.0877 2.219547
308.5699 2.056850
309.0520 1.981804
309.5341 1.908772
310.0162 1.932816
310.4983 2.258781
310.9804 2.829609
311.4626 3.237324
311.9447 3.226379
312.4268 3.014198
312.9089 2.951752
313.3910 3.100544
313.8731 3.255630
314.3553 3.184895
314.8374 2.969879
315.3195 2.877274
315.8016 3.066868
316.2837 3.349888
316.7658 3.538601
317.2480 3.618729
317.7301 3.558445
318.2122 3.228294
318.6943 2.782509
319.1764 2.585236
319.6585 2.792236
320.1407 3.152489
320.6228 3.477146
321.1049 3.705414
321.5870 3.778660
322.0691 3.669262
322.5512 3.455959
323.0334 3.221962
323.5155 2.926567
323.9976 2.748341
324.4797 2.812298
324.9618 3.064964
325.4439 3.390560
325.9261 3.829117
326.4082 4.193481
326.8903 4.178791
327.3724 3.795235
327.8545 3.409031
328.3366 3.081676
328.8188 2.851440
329.3009 2.828369
329.7830 3.066311
330.2651 3.330784
330.7472 3.376907
331.2293 3.242569
331.7115 3.120991
332.1936 3.089836
332.6757 3.062130
333.1578 2.893757
333.6399 2.578945
334.1220 2.362221
334.6042 2.446552
335.0863 2.761333
335.5684 2.996574
336.0505 3.189110
336.5326 3.255318
337.0147 3.061440
337.4969 2.665798
337.9790 2.328102
338.4611 2.155041
338.9432 2.123474
339.4253 2.197094
339.9074 2.452129
340.3896 2.608242
340.8717 2.468243
341.3538 2.163406
341.8359 1.982109
342.3180 2.030796
342.8001 2.124851
343.2822 1.933022
343.7643 1.407394
344.2465 1.110298
344.7286 1.389111
345.2107 1.825886
345.6928 1.900997
346.1749 1.545990
346.6570 1.158535
347.1392 1.139523
347.6213 1.497974
348.1034 1.584049
348.5855 1.160320
349.0676 0.6616100
349.5497 0.3206480
350.0319 0.1447030
350.5140 0.1289290
350.9961 0.3233110
351.4782 0.6483920
351.9603 0.7240370
352.4424 0.3168110
352.9246 1.5430000E-02
353.4067 3.0590000E-02
353.8888 0.1342810
354.3709 0.2307050
354.8530 0.1609380
355.3351 5.6650001E-03
355.8173 8.8223003E-02
356.2994 0.1210670
356.7815 9.1018997E-02
357.2636 0.1376270
357.7457 0.3528020
358.2278 0.3643490
358.7100 0.1365090
359.1921 0.2985950
359.6742 0.9585910
360.1563 1.934711
360.6384 2.523968
361.1205 2.606339
361.6027 2.459618
362.0848 2.127529
362.5669 1.679939
363.0490 1.243488
363.5311 0.8914490
364.0132 0.6319200
364.4954 0.5586740
364.9775 0.8646770
365.4596 1.129841
365.9417 1.223881
366.4238 1.237034
366.9059 1.308208
367.3881 1.493855
367.8702 1.727962
368.3523 1.875011
368.8344 1.891415
369.3165 1.879688
369.7986 1.834850
370.2808 1.771561
370.7629 1.688328
371.2450 1.590473
371.7271 1.498093
372.2092 1.432877
372.6913 1.393616
373.1735 1.389435
373.6556 1.536217
374.1377 1.598064
374.6198 1.421455
375.1019 1.095596
375.5840 0.7902980
376.0662 0.6008830
376.5483 0.5437850
377.0304 0.7389870
377.5125 1.688381
377.9946 2.134727
378.4767 1.512890
378.9589 0.5165980
379.4410 0.1792450
379.9231 0.3499570
380.4052 0.2154500
380.8873 7.8608997E-02
381.3694 8.7298997E-02
381.8516 0.1655160
382.3337 0.1452480
382.8158 3.4511998E-02
383.2979 0.1972730
383.7800 0.5307350
384.2621 0.8967170
384.7443 1.269535
385.2264 1.636230
385.7085 1.855564
386.1906 1.786053
386.6727 1.774521
387.1548 1.889069
387.6370 2.158081
388.1191 2.647953
388.6012 3.436848
389.0833 4.358463
389.5654 5.144638
390.0475 5.803593
390.5297 6.288677
391.0118 6.430019
391.4939 6.478561
391.9760 6.587757
392.4581 6.778271
392.9402 7.117699
393.4224 7.653534
393.9045 8.382782
394.3866 9.365761
394.8687 10.86662
395.3508 12.18089
395.8329 12.55045
396.3151 12.24618
396.7972 12.14417
397.2793 12.70926
397.7614 13.60268
398.2435 14.29607
398.7256 14.75153
399.2078 15.40778
399.6899 16.66364
400.1720 18.22531
400.6541 19.43901
401.1362 20.12298
401.6183 20.73860
402.1005 21.52653
402.5826 22.45583
403.0647 23.44776
403.5468 24.47868
404.0289 25.54533
404.5110 26.68553
404.9932 27.91596
405.4753 29.05027
405.9574 29.78523
406.4395 30.56535
406.9216 31.85114
407.4037 33.66779
407.8859 35.73027
408.3680 37.86774
408.8501 40.06742
409.3322 42.07853
409.8143 43.62151
410.2964 45.32770
410.7786 47.32343
411.2607 49.65570
411.7428 52.50416
412.2249 55.93893
412.7070 59.66156
413.1891 63.02441
413.6713 65.07000
414.1534 68.58253
414.6355 73.73814
415.1176 80.16395
415.5997 87.60349
416.0818 96.01569
416.5640 105.4163
417.0461 115.7422
417.5282 126.9421
418.0103 139.8242
418.4924 155.8962
418.9745 172.1161
419.4567 188.7802
419.9388 204.9524
420.4209 219.4165
420.9030 231.4784
421.3851 242.0814
421.8672 252.9755
422.3494 264.3779
422.8315 275.5397
423.3136 284.9825
423.7957 295.4011
424.2778 308.1985
424.7599 323.6141
425.2421 341.2823
425.7242 360.6112
426.2063 381.8332
426.6884 406.4769
427.1705 434.9558
427.6526 466.3785
428.1348 499.6499
428.6169 535.5064
429.0990 575.5305
429.5811 620.8452
430.0632 669.0363
430.5453 718.1487
431.0275 768.2498
431.5096 816.1083
431.9917 861.1306
432.4738 902.9664
432.9559 941.3392
433.4380 976.2894
433.9202 1011.155
434.4023 1047.029
434.8844 1083.905
435.3665 1121.617
435.8486 1160.357
436.3307 1199.559
436.8129 1241.083
437.2950 1282.358
437.7771 1314.368
438.2592 1336.419
438.7413 1349.804
439.2234 1353.176
439.7056 1348.352
440.1877 1338.200
440.6698 1322.809
441.1519 1306.743
441.6340 1296.906
442.1161 1293.483
442.5983 1296.912
443.0804 1306.429
443.5625 1323.384
444.0446 1350.020
444.5267 1385.526
445.0089 1427.190
445.4910 1473.558
445.9731 1524.090
446.4552 1574.168
446.9373 1632.078
447.4194 1680.102
447.9016 1721.779
448.3837 1749.508
448.8658 1756.365
449.3479 1739.894
449.8300 1699.449
450.3121 1632.391
450.7943 1534.608
451.2764 1425.381
451.7585 1292.625
452.2406 1159.333
452.7227 1029.804
453.2048 907.2543
453.6870 796.2004
454.1691 699.0777
454.6512 615.5886
455.1333 543.8706
455.6154 485.2759
456.0975 434.9167
456.5797 393.6663
457.0618 358.8253
457.5439 329.0030
458.0260 304.2026
458.5081 282.7332
458.9902 263.8600
459.4724 247.4732
459.9545 233.2723
460.4366 221.5910
460.9187 211.0813
461.4008 200.9013
461.8829 191.0609
462.3651 181.7460
462.8472 173.1002
463.3293 164.8169
463.8114 156.6207
464.2935 148.5961
464.7756 140.9871
465.2578 133.8732
465.7399 127.1819
466.2220 120.9470
466.7041 115.1555
467.1862 109.7543
467.6683 104.7640
468.1505 100.1775
468.6326 96.11884
469.1147 92.47660
469.5968 88.92971
470.0789 85.23357
470.5610 81.44155
471.0432 77.92576
471.5253 74.57112
472.0074 71.57847
472.4895 69.22649
472.9716 67.08035
473.4537 64.70112
473.9359 62.02575
474.4180 59.35510
474.9001 57.09366
475.3822 55.31893
475.8643 53.40032
476.3464 51.14761
476.8286 48.89645
477.3107 46.70491
477.7928 44.63213
478.2749 42.74351
478.7570 41.06176
479.2391 39.58486
479.7213 38.40715
480.2034 37.57421
480.6855 36.54112
481.1676 35.02465
481.6497 33.42186
482.1318 32.00479
482.6140 30.76471
483.0961 29.64478
483.5782 28.73760
484.0603 27.88595
484.5424 26.77378
485.0245 25.37829
485.5067 24.00143
485.9888 22.79277
486.4709 21.73084
486.9530 20.73775
487.4351 19.78262
487.9172 18.95932
488.3994 18.34431
488.8815 17.85675
489.3636 17.45014
489.8457 17.10077
490.3278 16.66808
490.8099 16.01049
491.2921 15.12688
491.7742 14.15104
492.2563 12.73314
492.7384 11.64067
493.2205 11.41049
493.7026 11.55238
494.1848 11.32370
494.6669 10.46087
495.1490 9.378078
495.6311 8.762611
496.1132 8.823772
496.5953 8.681843
497.0775 8.161762
497.5596 7.597084
498.0417 7.082817
498.5238 6.628120
499.0059 6.234554
499.4880 5.915405
499.9702 5.626846
500.4523 5.242535
500.9344 4.720631
501.4165 4.367538
501.8986 4.381184
502.3807 4.506870
502.8629 4.578075
503.3450 4.580727
503.8271 4.376953
504.3092 3.636482
504.7913 2.760868
505.2734 2.443401
505.7556 2.717308
506.2377 3.051254
506.7198 3.154045
507.2019 3.091427
507.6840 3.090137
508.1661 3.289047
508.6482 3.284603
509.1303 2.822189
509.6125 2.178352
510.0946 1.642132
510.5767 1.270905
511.0588 1.018944
511.5409 0.8566130
512.0231 0.7831380
512.5052 0.6879270
512.9873 0.5697440
513.4694 0.4298210
513.9515 0.1418110
514.4337 0.1083260
514.9158 4.1820999E-02
515.3979 0.3960800
515.8800 0.8990970
516.3621 1.103569
516.8442 0.9959110
517.3264 0.7026980
517.8085 2.4448000E-02
518.2906 0.6138760
518.7727 0.7683180
519.2548 0.6415410
519.7369 0.4671250
520.2191 0.2832260
520.7012 0.1818280
521.1833 0.3558040
521.6654 0.7538030
522.1475 0.9550130
522.6296 0.8123660
523.1118 0.5446400
523.5939 0.3182530
524.0760 0.1403850
524.5581 0.1532860
525.0402 0.5833890
525.5223 1.033978
526.0045 1.166733
526.4866 1.079126
526.9687 1.102381
527.4508 1.391609
527.9329 1.776592
528.4150 1.943754
528.8972 1.841558
529.3793 1.609810
529.8614 1.032148
530.3435 0.5322760
530.8256 0.3516730
531.3077 0.4477790
531.7899 0.7056660
532.2720 1.085535
532.7541 1.465338
533.2362 1.476076
533.7183 0.9325240
534.2004 0.5468040
534.6826 0.5363140
535.1647 0.6431310
535.6468 0.7948550
536.1289 0.9510480
536.6110 0.9919720
537.0931 0.7527140
537.5753 0.3994500
538.0574 0.3071190
538.5395 0.4943200
539.0216 0.5034580
539.5037 1.2562000E-02
539.9858 0.6389790
540.4680 0.8539490
540.9501 0.5702230
541.4322 0.3118710
541.9143 0.1760750
542.3964 0.1668340
542.8785 0.3367370
543.3607 0.6561850
543.8428 0.9957120
544.3249 1.282108
544.8070 1.508327
545.2891 1.646471
545.7712 1.600496
546.2534 1.595268
546.7355 1.680368
547.2176 1.774380
547.6997 1.792990
548.1818 1.753071
548.6639 1.744772
549.1461 1.831656
549.6282 2.011044
550.1103 2.299065
550.5924 2.774977
551.0745 3.154644
551.5566 3.334644
552.0388 3.392035
552.5209 3.329037
553.0030 3.156324
553.4851 3.042051
553.9672 3.134888
554.4493 3.330290
554.9315 3.397064
555.4136 3.322811
555.8957 3.381626
556.3778 3.781273
556.8599 4.369196
557.3420 4.701391
557.8242 4.628628
558.3063 4.700939
558.7884 5.235367
559.2705 5.814205
559.7526 5.976748
560.2347 5.766697
560.7169 5.611826
561.1990 5.837559
561.6811 6.334763
562.1632 6.592016
562.6453 6.403929
563.1274 6.322876
563.6096 6.462353
564.0917 6.673048
564.5738 6.834671
565.0559 6.954563
565.5380 7.137552
566.0201 7.496796
566.5023 7.953999
566.9844 8.310047
567.4665 8.561543
567.9486 8.733479
568.4307 8.764175
568.9128 8.779724
569.3950 8.961212
569.8771 9.322815
570.3592 9.681805
570.8413 9.825836
571.3234 10.04303
571.8055 10.76975
572.2877 11.90254
572.7698 12.86588
573.2519 13.32685
573.7340 13.45292
574.2161 13.66443
574.6982 13.99783
575.1804 14.36089
575.6625 14.68233
576.1446 15.06329
576.6267 15.54726
577.1088 16.18901
577.5909 17.11125
578.0731 18.43124
578.5552 19.91260
579.0373 20.96517
579.5194 21.46734
580.0015 22.13660
580.4836 23.15503
580.9658 24.38918
581.4479 25.63955
581.9300 26.96812
582.4121 28.64889
582.8942 30.96533
583.3763 33.48901
583.8585 35.70419
584.3406 37.76900
584.8227 40.24158
585.3048 43.30303
585.7869 46.79485
586.2690 50.53143
586.7512 54.55879
587.2333 58.75828
587.7154 63.35676
588.1975 67.92738
588.6796 72.37893
589.1617 76.63457
589.6438 80.67970
590.1259 84.47185
590.6080 87.91373
591.0901 90.64761
591.5723 92.56444
592.0544 95.24514
592.5365 99.10629
593.0186 103.0709
593.5007 106.4830
593.9828 109.6969
594.4650 113.2846
594.9471 117.3932
595.4292 121.8325
595.9113 126.5290
596.3934 131.3680
596.8755 135.9984
597.3577 140.3745
597.8398 144.9665
598.3219 150.1133
598.8040 155.7492
599.2861 161.5700
599.7682 167.5012
600.2504 173.6910
600.7325 180.4198
601.2146 187.2980
601.6967 194.4355
602.1788 201.5013
602.6609 207.4524
603.1431 211.4397
603.6252 213.6275
604.1073 214.7232
604.5894 215.1163
605.0715 213.3893
605.5536 208.8130
606.0358 202.1342
606.5179 193.1253
607.0000 182.1311
607.4821 171.1238
607.9642 161.3560
608.4464 151.9100
608.9285 141.6276
609.4106 130.6188
609.8927 119.7595
610.3748 109.3151
610.8569 99.37996
611.3391 89.97420
611.8212 81.02832
612.3033 73.22523
612.7854 66.73203
613.2675 61.15855
613.7496 56.37793
614.2318 52.35674
614.7139 49.19958
615.1960 46.90515
615.6781 45.07323
616.1602 43.21936
616.6423 41.32508
617.1245 39.49417
617.6066 37.89609
618.0887 36.08812
618.5708 33.83332
619.0529 31.24992
619.5350 28.38160
620.0172 25.12433
620.4993 21.92797
620.9814 18.79221
621.4635 15.98293
621.9456 14.01410
622.4277 12.88407
622.9099 12.00113
623.3920 10.97075
623.8741 9.930014
624.3562 9.360046
624.8383 9.588694
625.3204 9.791203
625.8026 10.12680
626.2847 10.31821
626.7668 9.993992
627.2489 9.347775
627.7310 8.976490
628.2131 9.282215
628.6953 9.874319
629.1774 9.928146
629.6595 9.395815
630.1416 9.315439
630.6237 10.07946
631.1058 11.05398
631.5880 11.69664
632.0701 12.07060
632.5522 12.40581
633.0343 12.68253
633.5164 13.02097
633.9985 13.50978
634.4807 14.08857
634.9628 14.67495
635.4449 15.25510
635.9270 15.84035
636.4091 16.40288
636.8912 16.95018
637.3734 17.70856
637.8555 18.82871
638.3376 19.92939
638.8197 21.16455
639.3018 22.20307
639.7839 22.85440
640.2661 23.07400
640.7482 22.80980
641.2303 21.74437
641.7124 20.39268
642.1945 19.78116
642.6766 19.80429
643.1588 19.18945
643.6409 17.42067
644.1230 15.18039
644.6051 13.24651
645.0872 11.65978
645.5693 10.16763
646.0515 8.692986
646.5336 7.401186
647.0157 6.421787
647.4978 5.635572
647.9799 4.862839
648.4620 4.068115
648.9442 3.393812
649.4263 3.029833
649.9084 2.931379
650.3905 2.671129
650.8726 2.155809
651.3547 1.728220
651.8369 1.579638
652.3190 1.529547
652.8011 1.386095
653.2832 1.139076
653.7653 0.9246540
654.2474 0.8426210
654.7296 0.7765810
655.2117 0.5801410
655.6938 0.3012120
656.1759 9.2545003E-02
656.6580 1.1185000E-02
657.1401 3.7106998E-02
657.6223 0.1638390
658.1044 0.4337250
658.5865 0.5522940
659.0686 0.2022400
659.5507 6.0711000E-02
660.0328 0.5165020
660.5150 1.155031
660.9971 1.466223
661.4792 1.352516
661.9613 1.188330
662.4434 1.335623
662.9255 1.629803
663.4077 1.655039
663.8898 1.399115
664.3719 1.167740
664.8540 1.089523
665.3361 1.127665
665.8182 1.236826
666.3004 1.462992
666.7825 1.589384
667.2646 1.580706
667.7467 1.506390
668.2288 1.331793
668.7109 1.135157
669.1931 1.054705
669.6752 1.129284
670.1573 1.238577
670.6394 1.249617
671.1215 1.165586
671.6036 1.023026
672.0858 0.8187750
672.5679 0.5603350
673.0500 0.1259670
673.5321 0.2776170
674.0142 0.2809120
674.4963 0.1998310
674.9785 0.4696140
675.4606 0.1634500
675.9427 0.2907050
676.4248 0.6332260
676.9069 0.8291550
677.3890 0.8200450
677.8712 0.5861280
678.3533 0.2748970
678.8354 0.1039920
679.3175 8.9213997E-02
679.7996 6.3593000E-02
680.2817 3.0296000E-02
680.7639 4.5414001E-02
681.2460 0.1740760
681.7281 0.4334960
682.2102 0.4837020
682.6923 0.2868860
683.1744 0.1348650
683.6566 0.2772030
684.1387 0.4924700
684.6208 0.4524460
685.1029 0.2109530
685.5850 8.4406003E-02
686.0671 0.2161830
686.5493 0.4287570
687.0314 0.4368170
687.5135 0.1727220
687.9956 6.8747997E-02
688.4777 0.3604240
688.9598 0.5379620
689.4420 0.3644010
689.9241 7.1341999E-02
690.4062 7.3266998E-02
690.8883 2.4460001E-02
691.3704 6.2089998E-02
691.8525 5.7898000E-02
692.3347 1.8562000E-02
692.8168 0.1040400
693.2989 0.2986510
693.7810 0.3016360
694.2631 5.3739998E-02
694.7452 0.4872230
695.2274 0.5874600
695.7095 0.2738340
696.1916 0.1085000
696.6737 0.2131860
697.1558 0.3064520
697.6379 0.2839510
698.1201 0.2136020
698.6022 0.1349470
699.0843 7.9071000E-02
699.5664 0.1540790
700.0485 0.5763840
700.5306 1.134216
701.0128 1.178301
701.4949 0.6878410
701.9770 0.3287540
702.4591 0.3471220
702.9412 0.5043870
703.4233 0.5276150
703.9055 0.4084070
704.3876 0.3288400
704.8697 0.2515600
705.3518 0.2613600
705.8339 0.4317420
706.3160 0.6786630
706.7982 0.9426380
707.2803 1.191422
707.7624 1.361277
708.2445 1.389950
708.7266 1.314928
709.2087 1.217085
709.6909 1.087351
710.1730 1.041784
710.6551 1.140333
711.1372 1.275824
711.6193 1.373547
712.1014 1.428005
712.5836 1.404350
713.0657 1.113623
713.5478 0.9763850
714.0299 1.352030
714.5120 1.812391
714.9941 1.841221
715.4763 1.462450
715.9584 1.083199
716.4405 0.9711800
716.9226 1.038467
717.4047 1.123796
717.8868 1.247414
718.3690 1.206722
718.8511 0.8609370
719.3332 0.5395220
719.8153 0.4759010
720.2974 0.6176570
720.7795 0.8636020
721.2617 1.315977
721.7438 1.645676
722.2259 1.647272
722.7080 1.543865
723.1901 1.560371
723.6722 1.671886
724.1544 1.701582
724.6365 1.552492
725.1186 1.369978
725.6007 1.438408
726.0828 1.781059
726.5649 2.015312
727.0471 2.099483
727.5292 2.130428
728.0113 2.143341
728.4934 2.138691
728.9755 2.118696
729.4576 2.076851
729.9398 2.029959
730.4219 1.954046
730.9040 1.900078
731.3861 1.947929
731.8682 2.043184
732.3503 1.999731
732.8325 1.752190
733.3146 1.566952
733.7967 1.864937
734.2788 2.580523
734.7609 2.761211
735.2430 2.231646
735.7252 1.772699
736.2073 1.677370
736.6894 1.751064
737.1715 1.790226
737.6536 1.794487
738.1357 1.771311
738.6179 1.603874
739.1000 1.527784
739.5821 1.743851
740.0642 2.099007
740.5463 2.429489
741.0284 2.666763
741.5106 2.733316
741.9927 2.550474
742.4748 2.192562
742.9569 1.826630
743.4390 1.408152
743.9211 1.201540
744.4033 1.367640
744.8854 1.589180
745.3675 1.565926
745.8496 1.378981
746.3317 1.312881
746.8138 1.413710
747.2960 1.631409
747.7781 2.145100
748.2602 2.617174
748.7423 2.651726
749.2244 2.341679
749.7065 2.068211
750.1887 2.028376
750.6708 2.104559
751.1529 2.139668
751.6350 2.142401
752.1171 2.051043
752.5992 1.793879
753.0814 1.619947
753.5635 1.706402
754.0456 1.926743
754.5277 2.041416
755.0098 2.050758
755.4919 1.970043
755.9741 1.694613
756.4562 1.444294
756.9383 1.300991
757.4204 1.276665
757.9025 1.428497
758.3846 1.744389
758.8668 2.039516
759.3489 2.104616
759.8310 2.031151
760.3131 2.149714
760.7952 2.470255
761.2773 2.565174
761.7595 2.232241
762.2416 1.815371
762.7237 1.650537
763.2058 1.736107
763.6879 1.909016
764.1700 2.305470
764.6522 2.603483
765.1343 2.725363
765.6164 2.742819
766.0985 2.660553
766.5806 2.516064
767.0627 2.404980
767.5449 2.377821
768.0270 2.395290
768.5091 2.422783
768.9912 2.458504
769.4733 2.498253
769.9554 2.543123
770.4376 2.567633
770.9197 2.551697
771.4018 2.495508
771.8839 2.401449
772.3660 2.252266
772.8481 2.116510
773.3303 1.856962
773.8124 1.762295
774.2945 2.127020
774.7766 2.646496
775.2587 2.872286
775.7408 2.732811
776.2230 2.600456
776.7051 2.724627
777.1872 2.937475
777.6693 3.094860
778.1514 3.188784
778.6335 3.147816
779.1157 2.969805
779.5978 2.791012
780.0799 2.731390
780.5620 2.766312
781.0441 2.822029
781.5262 2.963440
782.0084 3.036957
782.4905 2.886450
782.9726 2.830343
783.4547 3.077087
783.9368 3.527838
784.4189 3.964804
784.9011 4.496197
785.3832 4.648001
785.8653 3.755865
786.3474 2.685387
786.8295 2.436338
787.3116 2.855831
787.7938 3.242155
788.2759 3.280313
788.7580 3.143255
789.2401 3.022581
789.7222 2.923397
790.2043 2.921667
790.6865 3.007341
791.1686 3.214031
791.6507 3.657541
792.1328 4.118036
792.6149 4.315811
793.0970 4.250128
793.5792 4.103264
794.0613 3.743876
794.5434 3.479786
795.0255 3.525719
795.5076 3.631231
795.9897 3.483971
796.4719 3.138351
796.9540 2.943125
797.4361 3.138229
797.9182 3.444159
798.4003 3.446974
798.8824 3.224812
799.3646 3.093693
799.8467 3.093035
800.3288 3.113352
800.8109 3.100946
801.2930 3.045254
801.7751 2.910318
802.2573 2.626535
802.7394 2.504875
803.2215 2.624668
803.7036 2.815893
804.1857 3.186911
804.6678 3.515781
805.1500 3.498325
805.6321 3.135714
806.1142 2.826719
806.5963 2.774332
807.0784 2.838301
807.5605 2.991617
808.0427 3.147186
808.5248 3.103546
809.0069 2.850302
809.4890 2.585537
809.9711 2.453407
810.4532 2.422050
810.9354 2.400265
811.4175 2.377523
811.8996 2.489380
812.3817 2.865820
812.8638 3.120527
813.3459 2.974525
813.8281 2.583889
814.3102 2.274046
814.7923 2.047733
815.2744 1.883171
815.7565 1.778547
816.2386 1.734446
816.7208 1.829016
817.2029 1.943396
817.6850 1.889948
818.1671 1.659424
818.6492 1.452175
819.1313 1.429838
819.6135 1.497574
820.0956 1.535667
820.5777 1.532782
821.0598 1.407225
821.5419 1.139013
822.0240 0.8582270
822.5062 0.6380670
822.9883 0.5073910
823.4704 0.5846630
823.9525 0.9944920
824.4346 1.304691
824.9167 1.522062
825.3989 1.616907
825.8810 1.538015
826.3631 1.354454
826.8452 1.114130
827.3273 0.8162380
827.8094 0.6504630
828.2916 0.8223670
828.7737 1.016525
829.2558 0.9775940
829.7379 0.8156360
830.2200 0.7662160
830.7021 0.8362690
831.1843 0.7615570
831.6664 0.3030820
832.1485 0.3320600
832.6306 0.7264160
833.1127 0.8839050
833.5948 0.8289450
834.0770 0.5336270
834.5591 0.1622540
835.0412 0.2426590
835.5233 0.5893650
836.0054 0.6244750
836.4875 0.1723820
836.9697 8.5587002E-02
837.4518 0.2062550
837.9339 8.7040000E-02
838.4160 0.6810070
838.8981 1.473152
839.3802 1.423990
839.8624 0.5784260
840.3445 5.1352002E-02
840.8266 0.7306770
841.3087 1.539612
841.7908 1.548986
842.2729 1.100573
842.7551 0.7074580
843.2372 0.4536510
843.7193 0.2400020
844.2014 9.7350003E-03
844.6835 0.1937500
845.1656 1.3186000E-02
845.6478 0.5475290
846.1299 0.7465990
846.6120 0.4496100
847.0941 0.2092990
847.5762 0.2739660
848.0583 0.4918900
848.5405 0.6663860
849.0226 0.7984750
849.5047 0.9554230
849.9868 1.139584
850.4689 1.355007
850.9510 1.572056
851.4332 1.799467
851.9153 2.101027
852.3974 2.449272
852.8795 2.699310
853.3616 2.727848
853.8438 2.732775
854.3259 2.973915
854.8080 3.277803
855.2901 3.315575
855.7722 3.147516
856.2543 3.097466
856.7365 3.289024
857.2186 3.579123
857.7007 3.811485
858.1828 4.004211
858.6649 4.174416
859.1470 4.260567
859.6292 4.698404
860.1113 5.835802
860.5934 6.860365
861.0755 6.955925
861.5576 6.310310
862.0397 5.953749
862.5219 6.069365
863.0040 6.176630
863.4861 6.264442
863.9682 6.325600
864.4503 6.283106
864.9324 6.242729
865.4146 6.394737
865.8967 6.769005
866.3788 7.112040
866.8609 7.335541
867.3430 7.406105
867.8251 7.151058
868.3073 6.762299
868.7894 6.671055
869.2715 6.904957
869.7536 7.106003
870.2357 7.033527
870.7178 6.740559
871.2000 6.191929
871.6821 5.408550
872.1642 5.257137
872.6463 5.936981
873.1284 6.508236
873.6105 6.503704
874.0927 6.202103
874.5748 6.035645
875.0569 6.039093
875.5390 5.874016
876.0211 5.330326
876.5032 4.891914
876.9854 4.609253
877.4675 4.479290
877.9496 4.613258
878.4317 4.894135
878.9138 4.985004
879.3959 4.748302
879.8781 4.443134
880.3602 4.111481
880.8423 3.850941
881.3244 3.817455
881.8065 3.928642
882.2886 3.995544
882.7708 3.955002
883.2529 3.846840
883.7350 3.682526
884.2171 3.496525
884.6992 3.366924
885.1813 3.290306
885.6635 3.233444
886.1456 3.192749
886.6277 3.287266
887.1098 3.639782
887.5919 4.079628
888.0740 4.153751
888.5562 3.769989
889.0383 3.361740
889.5204 2.829231
890.0025 2.391964
890.4846 2.231323
890.9667 2.173546
891.4489 2.070259
891.9310 1.930466
892.4131 1.705902
892.8952 1.244034
893.3773 0.8732910
893.8594 0.6782720
894.3416 0.5976100
894.8237 0.6758080
895.3058 0.8267210
895.7879 0.8553160
896.2700 0.7074320
896.7521 0.5845340
897.2343 0.7530980
897.7164 0.9520380
898.1985 0.7923160
898.6806 0.4050060
899.1627 3.3179998E-02
899.6448 0.2606160
900.1270 0.4602130
900.6091 0.5455700
901.0912 0.5310970
901.5733 0.4136350
902.0554 0.1948170
902.5375 0.1491430
903.0197 0.3063740
903.5018 0.4794390
903.9839 0.6193470
904.4660 0.7318420
904.9481 0.7876240
905.4302 0.7568400
905.9124 0.8202900
906.3945 1.030708
906.8766 1.270100
907.3587 1.649612
907.8408 1.933437
908.3229 1.881451
908.8051 1.612255
909.2872 1.474190
909.7693 1.639896
910.2514 1.589691
910.7335 0.8067210
911.2156 6.8999998E-02
911.6978 7.4120001E-03
912.1799 0.3478280
912.6620 0.6715700
913.1441 0.8657040
913.6262 0.9452210
914.1083 0.8610650
914.5905 0.7682910
915.0726 0.9544530
915.5547 1.270653
916.0368 1.302052
916.5189 1.051003
917.0010 0.8796500
917.4832 0.9753000
917.9652 1.110180
918.4473 0.9125790
918.9294 0.4295080
919.4116 0.2169000
919.8937 0.3363420
920.3758 0.2905120
920.8579 7.8731999E-02
921.3400 0.5482830
921.8221 0.9940300
922.3043 1.373917
922.7864 1.527676
923.2685 1.314388
923.7506 1.183243
924.2327 1.114067
924.7148 1.154373
925.1970 1.364555
925.6791 1.662792
926.1612 1.996876
926.6433 2.353325
927.1254 2.622711
927.6075 2.749935
928.0897 2.828159
928.5718 2.672924
929.0539 2.670174
929.5360 3.250614
930.0181 4.234741
930.5002 5.262199
930.9824 6.204269
931.4645 6.939579
931.9466 7.130608
932.4287 7.237755
932.9108 7.892273
933.3929 8.913258
933.8751 9.814636
934.3572 10.56436
934.8393 11.58440
935.3214 13.17402
935.8035 14.98222
936.2856 16.39285
936.7678 17.46514
937.2499 18.46315
937.7320 19.38369
938.2141 20.92812
938.6962 23.43688
939.1783 26.05443
939.6605 27.78544
940.1426 28.83988
940.6247 30.46085
941.1068 32.68970
941.5889 35.39993
942.0710 38.80429
942.5532 42.33941
943.0353 45.88727
943.5174 49.32213
943.9995 52.24934
944.4816 54.56981
944.9637 57.60320
945.4459 61.46309
945.9280 65.94585
946.4101 71.23115
946.8922 76.90489
947.3743 82.76728
947.8564 88.74545
948.3386 94.72952
948.8207 100.5893
949.3028 106.8843
949.7849 113.3755
950.2670 120.8828
950.7491 130.6419
951.2313 141.5288
951.7134 151.7190
952.1955 161.3097
952.6776 172.0540
953.1597 184.8229
953.6418 199.4698
954.1240 215.8659
954.6061 234.0022
955.0882 253.6621
955.5703 275.0725
956.0524 299.0657
956.5345 325.9405
957.0167 356.3589
957.4988 390.8097
957.9809 429.5018
958.4630 472.8824
958.9451 521.1641
959.4272 577.9946
959.9094 643.5859
960.3915 717.0734
960.8736 797.8724
961.3557 887.1233
961.8378 986.4482
962.3199 1095.974
962.8021 1209.269
963.2842 1329.120
963.7663 1446.952
964.2484 1561.933
964.7305 1673.761
965.2126 1782.134
965.6948 1887.425
966.1769 1987.670
966.6590 2080.676
967.1411 2177.398
967.6232 2274.957
968.1053 2379.163
968.5875 2491.737
969.0696 2610.631
969.5517 2735.437
970.0338 2864.678
970.5159 2997.662
970.9980 3134.538
971.4802 3271.412
971.9623 3405.479
972.4444 3540.117
972.9265 3678.196
973.4086 3817.391
973.8907 3957.773
974.3729 4096.226
974.8550 4224.753
975.3371 4344.431
975.8192 4441.191
976.3013 4517.725
976.7834 4556.154
977.2656 4542.177
977.7477 4472.060
978.2298 4336.702
978.7119 4137.714
979.1940 3894.103
979.6761 3610.117
980.1583 3305.505
980.6404 3000.535
981.1225 2699.856
981.6046 2413.910
982.0867 2145.690
982.5688 1905.547
983.0510 1697.265
983.5331 1516.646
984.0152 1360.615
984.4973 1226.413
984.9794 1107.384
985.4615 1003.490
985.9437 911.6201
986.4258 831.4473
986.9079 760.9119
987.3900 698.9772
987.8721 644.3535
988.3542 595.1097
988.8364 551.2014
989.3185 511.4561
989.8006 475.8752
990.2827 444.7099
990.7648 418.6228
991.2469 395.4482
991.7291 374.1966
992.2112 354.2307
992.6933 333.9645
993.1754 312.9734
993.6575 294.6193
994.1396 280.0405
994.6218 266.1801
995.1039 252.0103
995.5860 238.7721
996.0681 227.8718
996.5502 218.6709
997.0323 209.3098
997.5145 199.5843
997.9966 190.3470
998.4787 181.6080
998.9608 173.3960
999.4429 165.7698
999.9250 158.6348
1000.407 151.9532
1000.889 145.6795
1001.371 139.8010
1001.854 134.4029
1002.336 129.0066
1002.818 123.3328
1003.300 117.7685
1003.782 112.1647
1004.264 106.8976
1004.746 102.8330
1005.228 99.78290
1005.710 96.53173
1006.193 92.59786
1006.675 88.38019
1007.157 83.61557
1007.639 79.22578
1008.121 76.32156
1008.603 74.21231
1009.085 71.80519
1009.567 68.91353
1010.049 65.92771
1010.532 62.99162
1011.014 60.28870
1011.496 57.98749
1011.978 56.00072
1012.460 54.39948
1012.942 52.96494
1013.424 51.28143
1013.906 49.25314
1014.389 46.85254
1014.871 43.83498
1015.353 40.98746
1015.835 39.79949
1016.317 39.63480
1016.799 38.90510
1017.281 37.58926
1017.763 36.31606
1018.245 35.30279
1018.728 34.36037
1019.210 33.33477
1019.692 32.21935
1020.174 30.99238
1020.656 29.73078
1021.138 28.55116
1021.620 27.40888
1022.102 26.50445
1022.585 25.90209
1023.067 25.23013
1023.549 24.04942
1024.031 22.60926
1024.513 21.78551
1024.995 21.53807
1025.477 20.71587
1025.959 19.16238
1026.442 18.01619
1026.924 17.82921
1027.406 17.81941
1027.888 17.03551
1028.370 15.68405
1028.852 14.98502
1029.334 15.08697
1029.816 14.67103
1030.298 13.49813
1030.781 12.32784
1031.263 11.48314
1031.745 10.84488
1032.227 10.28040
1032.709 9.791519
1033.191 9.411407
1033.673 9.285973
1034.155 8.698227
1034.637 7.231293
1035.120 6.171852
1035.602 6.282707
1036.084 6.823990
1036.566 6.877304
1037.048 6.470009
1037.530 6.034462
1038.012 5.605873
1038.494 5.052895
1038.977 4.186905
1039.459 3.491478
1039.941 3.328178
1040.423 3.320160
1040.905 3.008194
1041.387 2.402000
1041.869 1.686218
1042.351 0.3776020
1042.833 0.2296220
1043.316 0.5347980
1043.798 1.275505
1044.280 1.348312
1044.762 1.128693
1045.244 1.038437
1045.726 1.072227
1046.208 1.068275
1046.690 1.136971
1047.172 0.9880830
1047.655 0.4051970
1048.137 0.1738740
1048.619 0.6501310
1049.101 0.9519580
1049.583 0.9004360
1050.065 0.5433730
1050.547 0.3945080
1051.029 0.6776280
1051.512 0.9087220
1051.994 1.125671
1052.476 1.155090
1052.958 0.7390980
1053.440 0.2017970
1053.922 0.1019360
1054.404 0.1582110
1054.886 7.2800003E-02
1055.369 0.2967450
1055.851 0.5015410
1056.333 0.3566740
1056.815 0.1175610
1057.297 0.2095640
1057.779 0.4703370
1058.261 0.4563140
1058.743 0.2014310
1059.225 3.9108001E-02
1059.708 0.1565400
1060.190 0.3616790
1060.672 1.101219
1061.154 1.508064
1061.636 0.6152270
1062.118 0.5395280
1062.600 0.6216890
1063.082 0.2141190
1063.564 0.7655490
1064.047 0.5995560
1064.529 0.4954380
1065.011 0.8744130
1065.493 1.238884
1065.975 1.276085
1066.457 1.163246
1066.939 1.054775
1067.421 0.9945640
1067.904 1.052036
1068.386 1.288982
1068.868 1.458603
1069.350 1.489883
1069.832 1.389862
1070.314 1.015339
1070.796 0.6233140
1071.278 0.5608670
1071.760 0.7173160
1072.243 0.6459540
1072.725 0.1614530
1073.207 8.2771003E-02
1073.689 0.4885060
1074.171 1.032513
1074.653 1.022915
1075.135 0.7836070
1075.617 0.6409680
1076.099 0.5684970
1076.582 0.3741570
1077.064 3.1200000E-03
1077.546 0.2581330
1078.028 0.2434080
1078.510 0.2867810
1078.992 1.610050
1079.474 3.572960
1079.956 3.628254
1080.439 2.389637
1080.921 1.294262
1081.403 0.6747250
1081.885 0.4142150
1082.367 0.6589810
1082.849 0.9902420
1083.331 1.187084
1083.813 1.389885
1084.295 1.831783
1084.778 2.319965
1085.260 2.469387
1085.742 2.243256
1086.224 2.067482
1086.706 2.131523
1087.188 2.252415
1087.670 2.323898
1088.152 2.444439
1088.635 2.681442
1089.117 3.022297
1089.599 3.465466
1090.081 3.993809
1090.563 4.526070
1091.045 5.049770
1091.527 5.535454
1092.009 5.990486
1092.491 6.381699
1092.974 6.670227
1093.456 6.893406
1093.938 7.002796
1094.420 7.083683
1094.902 7.468025
1095.384 8.359291
1095.866 9.177338
1096.348 9.696461
1096.830 10.10001
1097.313 10.40267
1097.795 10.70617
1098.277 11.14268
1098.759 11.66113
1099.241 12.06804
1099.723 12.28278
1100.205 12.65158
1100.687 13.68436
1101.170 14.36301
1101.652 13.74813
1102.134 13.08448
1102.616 13.42457
1103.098 14.48111
1103.580 15.66803
1104.062 16.91406
1104.544 17.80811
1105.026 17.79786
1105.509 18.05796
1105.991 19.21967
1106.473 20.40839
1106.955 21.09969
1107.437 21.47021
1107.919 21.74358
1108.401 21.94331
1108.883 22.24371
1109.365 22.60349
1109.848 23.17269
1110.330 24.33612
1110.812 25.32851
1111.294 25.63077
1111.776 25.67970
1112.258 25.84180
1112.740 26.17731
1113.222 26.91880
1113.705 28.41121
1114.187 29.60149
1114.669 30.25418
1115.151 30.84066
1115.633 31.41212
1116.115 32.04097
1116.597 32.86150
1117.079 33.75776
1117.562 34.38393
1118.044 34.57593
1118.526 35.15649
1119.008 36.49050
1119.490 37.70330
1119.972 38.51210
1120.454 39.27840
1120.936 40.32064
1121.418 41.35835
1121.901 41.90785
1122.383 41.95214
1122.865 42.29326
1123.347 42.95668
1123.829 43.90112
1124.311 45.23749
1124.793 46.65845
1125.275 48.14551
1125.757 49.41912
1126.240 50.07106
1126.722 50.24745
1127.204 50.74571
1127.686 51.63575
1128.168 52.59883
1128.650 53.68788
1129.132 54.52671
1129.614 54.92086
1130.097 55.32096
1130.579 56.12756
1131.061 57.17529
1131.543 58.10801
1132.025 58.93443
1132.507 59.17123
1132.989 58.75377
1133.471 59.18644
1133.953 60.84465
1134.436 62.33517
1134.918 62.85034
1135.400 62.92070
1135.882 63.25148
1136.364 63.78270
1136.846 64.17395
1137.328 64.39990
1137.810 64.74273
1138.292 65.24232
1138.775 66.05573
1139.257 67.22361
1139.739 68.25957
1140.221 68.73792
1140.703 68.82806
1141.185 68.74175
1141.667 68.56640
1142.149 68.66788
1142.632 68.93487
1143.114 68.84136
1143.596 68.31718
1144.078 67.71822
1144.560 67.21897
1145.042 66.92993
1145.524 67.16290
1146.006 67.55288
1146.489 67.46363
1146.971 67.10139
1147.453 66.88631
1147.935 66.85120
1148.417 66.92223
1148.899 67.05067
1149.381 66.96149
1149.863 66.35359
1150.345 65.60355
1150.828 64.94773
1151.310 64.41749
1151.792 64.24015
1152.274 64.15544
1152.756 63.61525
1153.238 62.61948
1153.720 61.74647
1154.202 61.26206
1154.684 60.84741
1155.167 60.60067
1155.649 60.06768
1156.131 58.77644
1156.613 57.18155
1157.095 55.78619
1157.577 54.51878
1158.059 53.00195
1158.541 51.10798
1159.024 49.44943
1159.506 48.57872
1159.988 47.38182
1160.470 45.15225
1160.952 42.94143
1161.434 41.42759
1161.916 40.32432
1162.398 39.30833
1162.880 38.34505
1163.363 36.99889
1163.845 35.03432
1164.327 33.10415
1164.809 31.09030
1165.291 29.34322
1165.773 28.17109
1166.255 26.98690
1166.737 25.16216
1167.219 23.08513
1167.702 21.77594
1168.184 21.30717
1168.666 20.80438
1169.148 20.32475
1169.630 19.46281
1170.112 18.03980
1170.594 16.80330
1171.076 16.17092
1171.559 15.72641
1172.041 14.91956
1172.523 13.91751
1173.005 13.46075
1173.487 13.48405
1173.969 13.04041
1174.451 12.11906
1174.933 11.41996
1175.416 11.13085
1175.898 10.93739
1176.380 10.61754
1176.862 10.30051
1177.344 10.28572
1177.826 10.35687
1178.308 9.961926
1178.790 9.258522
1179.272 8.588085
1179.755 8.033718
1180.237 7.674633
1180.719 7.522926
1181.201 7.374023
1181.683 7.084633
1182.165 6.711647
1182.647 6.199757
1183.129 5.726852
1183.611 5.526962
1184.094 5.494602
1184.576 5.512810
1185.058 5.507729
1185.540 5.271702
1186.022 4.639751
1186.504 4.271095
1186.986 4.731869
1187.468 5.171005
1187.951 4.851429
1188.433 4.649845
1188.915 5.930531
1189.397 7.558441
1189.879 7.177776
1190.361 4.629044
1190.843 2.914051
1191.325 2.835354
1191.807 2.722443
1192.290 2.441135
1192.772 2.185257
1193.254 1.977898
1193.736 1.879063
1194.218 2.006756
1194.700 2.236958
1195.182 2.251148
1195.664 2.041107
1196.146 1.674240
1196.629 1.073311
1197.111 0.7991940
1197.593 1.003857
1198.075 1.071255
1198.557 0.6788560
1199.039 0.2434310
1199.521 0.2581980
1200.003 0.5023960
1200.486 0.3128550
1200.968 0.1995390
1201.450 0.4044460
1201.932 0.3487470
1202.414 0.4875300
1202.896 0.8732410
1203.378 1.121349
1203.860 1.017811
1204.343 0.8141630
1204.825 0.7597390
1205.307 0.7678990
1205.789 0.7959250
1206.271 0.7913780
1206.753 0.5682140
1207.235 0.2386360
1207.717 0.1267890
1208.199 0.2392960
1208.682 0.1358260
1209.164 0.5117570
1209.646 0.9804570
1210.128 0.6720120
1210.610 0.3676760
1211.092 0.5407370
1211.574 0.9189830
1212.056 1.326160
1212.538 1.693035
1213.021 1.936413
1213.503 2.050758
1213.985 1.991787
1214.467 1.359375
1214.949 1.244923
1215.431 2.222805
1215.913 2.812466
1216.395 2.175076
1216.878 1.460236
1217.360 1.771824
1217.842 2.674744
1218.324 3.009491
1218.806 2.757793
1219.288 2.781303
1219.770 3.105827
1220.252 3.263748
1220.734 3.184727
1221.217 2.878853
1221.699 2.342499
1222.181 1.959946
1222.663 2.176750
1223.145 2.576931
1223.627 2.223808
1224.109 1.529678
1224.591 1.582294
1225.073 2.111412
1225.556 2.271397
1226.038 2.011837
1226.520 1.783367
1227.002 1.766632
1227.484 1.847607
1227.966 2.130863
1228.448 2.243633
1228.930 1.564270
1229.413 0.9553110
1229.895 1.510876
1230.377 2.419128
1230.859 2.370403
1231.341 1.507755
1231.823 1.056664
1232.305 1.362560
1232.787 1.567921
1233.270 1.566723
1233.752 1.445415
1234.234 1.139526
1234.716 0.8259540
1235.198 0.5056300
1235.680 0.3539920
1236.162 0.6903110
1236.644 1.344158
1237.126 1.437099
1237.609 0.8590010
1238.091 0.5063510
1238.573 0.3130760
1239.055 0.4787830
1239.537 1.037399
1240.019 1.367126
1240.501 1.216702
1240.983 0.9279210
1241.465 0.9277420
1241.948 1.036293
1242.430 0.7864490
1242.912 0.4533880
1243.394 0.8231050
1243.876 1.544109
1244.358 1.510895
1244.840 0.7668300
1245.322 0.4953350
1245.805 1.233913
1246.287 1.895702
1246.769 1.752857
1247.251 1.465446
1247.733 1.261105
1248.215 1.206905
1248.697 1.426052
1249.179 1.773746
1249.661 2.121868
1250.144 2.422791
1250.626 2.447250
1251.108 1.985657
1251.590 1.894783
1252.072 2.431877
1252.554 2.756714
1253.036 2.705063
1253.518 2.431736
1254.000 1.963139
1254.483 1.466900
1254.965 1.146812
1255.447 0.9485970
1255.929 0.6217610
1256.411 0.2410700
1256.893 0.4632490
1257.375 1.152611
1257.857 1.410797
1258.340 1.146259
1258.822 0.9474110
1259.304 1.071892
1259.786 1.186012
1260.268 0.9643670
1260.750 0.6886670
1261.232 0.7326620
1261.714 0.7822990
1262.197 0.3703350
1262.679 0.1609340
1263.161 0.2716100
1263.643 3.3679999E-02
1264.125 0.1064410
1264.607 3.9588999E-02
1265.089 8.1859998E-02
1265.571 0.4150620
1266.053 0.6651990
1266.536 0.7568360
1267.018 0.7785260
1267.500 0.6831360
1267.982 0.6764070
1268.464 0.8214190
1268.946 1.239296
1269.428 0.9970510
1269.910 0.1273160
1270.392 1.5163000E-02
1270.875 0.6171610
1271.357 0.8974840
1271.839 0.7205390
1272.321 0.3794900
1272.803 1.5656000E-02
1273.285 0.0000000E+00
