#Shining_header
#Data type:raman_database
#CAS:Not entered
#Material scientific name:Anatase
#Manufacturer:Not entered
#Laser model:Not entered
#Spectrometer model:Not entered
#Testing unit:Not entered
#Test time:Not entered
#Other experimental details:Not entered
#Shining_data
91.53320 0.0000000E+00
92.01532 386.9326
92.49744 0.4736330
92.97955 2.733398
93.46167 183.1230
93.94379 224.8584
94.42590 157.4541
94.90802 91.14062
95.39014 59.76562
95.87225 83.40332
96.35437 92.77441
96.83649 42.20410
97.31860 24.50684
97.80072 64.87891
98.28284 73.83105
98.76495 64.51465
99.24707 33.24316
99.72919 55.05273
100.2113 131.5859
100.6934 149.0332
101.1755 137.0879
101.6577 155.3496
102.1398 259.1260
102.6219 460.0928
103.1040 677.0068
103.5861 923.3291
104.0682 1169.366
104.5504 1393.569
105.0325 1593.761
105.5146 1790.168
105.9967 2005.605
106.4788 2238.347
106.9609 2495.869
107.4431 2778.755
107.9252 3085.058
108.4073 3418.393
108.8894 3771.821
109.3715 4151.715
109.8536 4556.740
110.3358 4979.876
110.8179 5444.832
111.3000 5974.593
111.7821 6564.820
112.2642 7172.092
112.7463 7760.420
113.2285 8375.265
113.7106 9048.332
114.1927 9772.583
114.6748 10584.19
115.1569 11518.05
115.6390 12577.11
116.1212 13790.25
116.6033 15133.76
117.0854 16623.58
117.5675 18280.31
118.0496 20116.77
118.5317 22138.05
119.0139 24343.87
119.4960 26725.95
119.9781 29339.52
120.4602 32262.00
120.9423 35428.16
121.4244 38737.85
121.9066 42139.63
122.3887 45658.81
122.8708 48979.37
123.3529 52069.91
123.8350 55061.29
124.3171 57979.22
124.7993 60840.95
125.2814 63649.06
125.7635 66404.63
126.2456 69088.46
126.7277 71866.97
127.2098 74660.05
127.6920 77581.88
128.1741 80750.12
128.6562 84161.20
129.1383 87867.16
129.6204 91980.35
130.1025 96447.37
130.5847 101191.7
131.0668 106149.7
131.5489 111353.7
132.0310 116879.4
132.5131 122734.2
132.9952 129086.7
133.4774 135912.4
133.9595 143216.0
134.4416 151114.5
134.9237 159652.2
135.4058 168845.0
135.8879 178865.3
136.3701 189589.9
136.8522 201246.3
137.3343 214096.4
137.8164 228278.4
138.2985 243439.3
138.7806 259364.6
139.2628 277182.0
139.7449 293641.1
140.2270 310170.3
140.7091 324766.1
141.1912 336249.8
141.6733 344027.9
142.1555 347526.3
142.6376 344501.8
143.1197 331944.1
143.6018 315574.9
144.0839 294080.9
144.5660 269278.9
145.0482 243404.8
145.5303 217474.5
146.0124 191871.9
146.4945 168961.0
146.9766 148535.0
147.4587 130328.1
147.9409 114465.8
148.4230 100826.6
148.9051 88974.08
149.3872 78708.83
149.8693 70227.38
150.3514 62683.60
150.8336 56250.17
151.3157 50656.75
151.7978 45718.27
152.2799 41428.44
152.7620 37599.75
153.2441 34181.37
153.7263 31118.62
154.2084 28364.41
154.6905 26006.50
155.1726 23959.03
155.6547 22012.91
156.1368 20138.48
156.6190 18460.08
157.1011 17045.13
157.5832 15835.84
158.0653 14708.96
158.5474 13587.71
159.0295 12478.85
159.5117 11478.92
159.9938 10629.22
160.4759 9857.104
160.9580 9156.934
161.4401 8515.753
161.9222 7912.980
162.4044 7329.196
162.8865 6755.340
163.3686 6238.869
163.8507 5800.569
164.3328 5392.825
164.8149 4997.185
165.2971 4610.256
165.7792 4250.059
166.2613 3936.009
166.7434 3690.049
167.2255 3435.420
167.7076 3146.652
168.1898 2866.165
168.6719 2632.755
169.1540 2450.564
169.6361 2287.920
170.1182 2098.224
170.6003 1858.554
171.0825 1648.572
171.5646 1488.803
172.0467 1355.846
172.5288 1216.027
173.0109 1057.072
173.4930 911.4678
173.9752 851.1201
174.4573 890.2646
174.9394 900.3486
175.4215 814.9888
175.9036 674.6226
176.3857 571.5059
176.8679 537.3306
177.3500 537.6157
177.8321 527.7222
178.3142 510.5684
178.7963 481.2769
179.2784 427.2104
179.7606 351.5913
180.2427 290.3145
180.7248 261.3306
181.2069 244.7148
181.6890 220.4497
182.1711 185.7627
182.6533 159.4077
183.1354 166.6738
183.6175 212.8862
184.0996 244.0010
184.5817 231.1650
185.0638 210.2866
185.5460 194.9497
186.0281 187.8516
186.5102 198.9917
186.9923 255.6514
187.4744 391.3384
187.9565 484.7144
188.4387 475.2661
188.9208 454.1836
189.4029 482.0044
189.8850 576.1694
190.3671 720.2871
190.8492 891.2051
191.3314 1101.881
191.8135 1323.493
192.2956 1515.235
192.7777 1731.691
193.2598 2037.707
193.7419 2457.265
194.2241 2943.222
194.7062 3376.732
195.1883 3861.470
195.6704 4148.526
196.1525 4206.688
196.6346 4069.751
197.1168 3738.180
197.5989 3206.118
198.0810 2553.593
198.5631 2006.375
199.0452 1577.151
199.5273 1217.726
200.0095 941.9590
200.4916 732.3555
200.9737 556.6602
201.4558 399.0356
201.9379 282.0537
202.4200 170.6899
202.9022 122.4863
203.3843 88.48389
203.8664 68.83789
204.3485 61.53418
204.8306 49.60889
205.3127 17.62012
205.7949 21.66943
206.2770 32.22607
206.7591 3.336426
207.2412 36.83545
207.7233 29.69189
208.2054 13.22705
208.6876 46.66309
209.1697 50.08301
209.6518 34.47559
210.1339 16.06982
210.6160 9.566406
211.0981 32.47607
211.5803 40.93848
212.0624 33.79932
212.5445 21.32764
213.0266 8.153564
213.5087 33.00659
213.9908 27.09399
214.4730 18.80908
214.9551 74.18628
215.4372 100.6206
215.9193 92.26611
216.4014 93.87769
216.8836 128.5688
217.3657 168.9854
217.8478 199.4739
218.3299 217.4707
218.8120 229.7122
219.2941 245.6729
219.7763 269.6228
220.2584 282.8171
220.7405 272.9727
221.2226 257.3506
221.7047 246.4390
222.1868 243.2500
222.6690 245.8281
223.1511 252.4788
223.6332 267.6182
224.1153 276.4351
224.5974 275.6985
225.0795 270.4033
225.5617 264.7190
226.0438 259.6155
226.5259 252.2158
227.0080 234.8667
227.4901 189.1655
227.9722 169.4678
228.4544 208.3315
228.9365 251.4409
229.4186 247.5974
229.9007 185.8440
230.3828 103.3469
230.8649 66.77954
231.3471 122.0044
231.8292 151.2014
232.3113 146.3884
232.7934 122.8755
233.2755 83.06641
233.7576 30.68335
234.2398 15.74121
234.7219 23.44116
235.2040 44.00146
235.6861 86.82812
236.1682 90.04565
236.6503 77.47485
237.1325 71.43579
237.6146 77.56274
238.0967 84.39600
238.5788 73.72900
239.0609 33.87524
239.5430 3.148682
240.0252 15.92700
240.5073 25.97046
240.9894 25.62769
241.4715 14.62964
241.9536 3.687256
242.4357 10.08569
242.9179 41.12671
243.4000 55.94067
243.8821 36.65381
244.3642 5.754150
244.8463 15.92920
245.3284 24.82568
245.8106 18.15527
246.2927 17.21191
246.7748 83.42432
247.2569 125.6545
247.7390 120.4817
248.2211 93.77441
248.7033 76.95361
249.1854 75.59326
249.6675 75.68945
250.1496 56.06104
250.6317 20.94092
251.1138 5.395508
251.5960 31.87793
252.0781 75.31836
252.5602 105.0195
253.0423 117.9907
253.5244 119.0532
254.0065 101.6821
254.4887 73.94629
254.9708 59.42090
255.4529 79.42627
255.9350 109.8071
256.4171 112.0024
256.8992 78.39844
257.3813 46.56445
257.8635 50.80322
258.3456 74.67383
258.8277 91.74854
259.3098 95.43701
259.7919 88.49170
260.2740 67.69678
260.7562 25.75049
261.2383 0.1621090
261.7204 36.76074
262.2025 96.67090
262.6846 129.8696
263.1667 110.2114
263.6489 72.91406
264.1310 71.52246
264.6131 115.2109
265.0952 150.7563
265.5773 147.4448
266.0594 127.6250
266.5416 107.4868
267.0237 86.64453
267.5058 74.01953
267.9879 88.22754
268.4700 136.8687
268.9521 178.4263
269.4343 201.2412
269.9164 210.3267
270.3985 203.8247
270.8806 181.1362
271.3627 156.7261
271.8448 147.5996
272.3270 154.0625
272.8091 158.2959
273.2912 170.0894
273.7733 171.9785
274.2554 143.5366
274.7375 81.14697
275.2197 13.89600
275.7018 23.46045
276.1839 24.59961
276.6660 31.24805
277.1481 60.18115
277.6302 87.72900
278.1124 94.88525
278.5945 83.56885
279.0766 75.68066
279.5587 96.79297
280.0408 151.4897
280.5229 199.3633
281.0051 214.7646
281.4872 244.1997
281.9693 321.2847
282.4514 434.0020
282.9335 540.6606
283.4156 598.3784
283.8978 605.6221
284.3799 636.8398
284.8620 710.0542
285.3441 790.2666
285.8262 875.0811
286.3083 960.0410
286.7905 1034.415
287.2726 1086.462
287.7547 1117.477
288.2368 1150.890
288.7189 1182.886
289.2010 1230.522
289.6832 1305.161
290.1653 1392.146
290.6474 1469.705
291.1295 1521.786
291.6116 1557.274
292.0938 1617.790
292.5759 1738.487
293.0580 1843.365
293.5401 1899.357
294.0222 1935.310
294.5043 1987.282
294.9865 2072.797
295.4686 2174.233
295.9507 2247.625
296.4328 2282.483
296.9149 2300.885
297.3970 2285.939
297.8792 2269.962
298.3613 2287.342
298.8434 2347.292
299.3255 2421.829
299.8076 2461.208
300.2897 2444.425
300.7719 2434.059
301.2540 2437.156
301.7361 2447.303
302.2182 2462.777
302.7003 2481.147
303.1824 2499.438
303.6646 2516.799
304.1467 2535.648
304.6288 2532.458
305.1109 2482.889
305.5930 2439.746
306.0751 2433.911
306.5573 2459.246
307.0394 2486.294
307.5215 2485.493
308.0036 2454.807
308.4857 2454.127
308.9678 2537.707
309.4500 2593.709
309.9321 2567.531
310.4142 2489.535
310.8963 2426.878
311.3784 2430.256
311.8605 2487.599
312.3427 2493.309
312.8248 2395.821
313.3069 2299.445
313.7890 2219.039
314.2711 2153.427
314.7532 2101.788
315.2354 2063.037
315.7175 2029.827
316.1996 1985.338
316.6817 1922.418
317.1638 1861.343
317.6459 1821.712
318.1281 1777.681
318.6102 1696.706
319.0923 1569.933
319.5744 1428.099
320.0565 1330.648
320.5386 1307.183
321.0208 1269.414
321.5029 1220.403
321.9850 1153.679
322.4671 1046.671
322.9492 907.3584
323.4313 780.2422
323.9135 720.6943
324.3956 749.0244
324.8777 741.6436
325.3598 664.7627
325.8419 580.7012
326.3240 508.1816
326.8062 447.4922
327.2883 390.7656
327.7704 331.2686
328.2525 270.7178
328.7346 222.9229
329.2167 196.1484
329.6989 173.0156
330.1810 154.0010
330.6631 134.1934
331.1452 105.7383
331.6273 64.82031
332.1094 16.21191
332.5916 31.10645
333.0737 90.62695
333.5558 126.9297
334.0379 123.4785
334.5200 104.1172
335.0021 94.20020
335.4843 101.3223
335.9664 109.3604
336.4485 87.28320
336.9306 16.71094
337.4127 28.96387
337.8948 3.408203
338.3770 26.56738
338.8591 21.53906
339.3412 140.3096
339.8233 274.8350
340.3055 369.5654
340.7876 419.2842
341.2697 476.4258
341.7518 535.5762
342.2339 608.3096
342.7160 707.7783
343.1982 825.0791
343.6803 939.1035
344.1624 1032.022
344.6445 1110.817
345.1266 1211.697
345.6087 1345.527
346.0909 1485.220
346.5730 1615.555
347.0551 1747.727
347.5372 1892.516
348.0193 2054.953
348.5014 2236.572
348.9836 2453.377
349.4657 2723.573
349.9478 2963.523
350.4299 3102.078
350.9120 3232.843
351.3941 3427.291
351.8763 3697.752
352.3584 3999.315
352.8405 4285.969
353.3226 4558.320
353.8047 4838.255
354.2868 5126.601
354.7690 5426.539
355.2511 5735.123
355.7332 6055.312
356.2153 6392.812
356.6974 6749.410
357.1795 7126.244
357.6617 7528.531
358.1438 7953.750
358.6259 8405.879
359.1080 8884.852
359.5901 9387.420
360.0722 9914.855
360.5544 10466.08
361.0365 11042.66
361.5186 11650.13
362.0007 12283.16
362.4828 12969.85
362.9649 13756.25
363.4471 14588.18
363.9292 15390.67
364.4113 16138.42
364.8934 16945.46
365.3755 17910.98
365.8576 19017.85
366.3398 20173.67
366.8219 21372.74
367.3040 22604.06
367.7861 23849.59
368.2682 25109.68
368.7503 26415.07
369.2325 27753.66
369.7146 29160.45
370.1967 30693.21
370.6788 32365.00
371.1609 34139.57
371.6430 35994.26
372.1252 37934.05
372.6073 39932.17
373.0894 41940.76
373.5715 44036.87
374.0536 46257.83
374.5357 48596.08
375.0179 51083.88
375.5000 53726.77
375.9821 56508.58
376.4642 59404.22
376.9463 62390.40
377.4284 65489.79
377.9106 68713.02
378.3927 72044.34
378.8748 75442.30
379.3569 78890.31
379.8390 82443.65
380.3211 86210.51
380.8033 90215.72
381.2854 94302.19
381.7675 98430.31
382.2496 102630.5
382.7317 106939.4
383.2138 111360.2
383.6960 115878.7
384.1781 120522.6
384.6602 125267.8
385.1423 130052.2
385.6244 134883.1
386.1065 139739.9
386.5887 144621.2
387.0708 149498.6
387.5529 154355.3
388.0350 159188.9
388.5171 163990.2
388.9992 168766.9
389.4814 173627.1
389.9635 178254.7
390.4456 182666.4
390.9277 186844.0
391.4098 190874.7
391.8919 194707.7
392.3741 198152.7
392.8562 201011.5
393.3383 203296.4
393.8204 204941.6
394.3025 205997.6
394.7846 206426.0
395.2668 206257.4
395.7489 205439.3
396.2310 203886.3
396.7131 201543.0
397.1952 198430.1
397.6773 194600.6
398.1595 189885.9
398.6416 184613.4
399.1237 178758.8
399.6058 172488.2
400.0879 165849.6
400.5700 158886.2
401.0522 151800.1
401.5343 144719.1
402.0164 137659.4
402.4985 130684.6
402.9806 123721.4
403.4627 116934.8
403.9449 110340.5
404.4270 103981.0
404.9091 97944.23
405.3912 92301.31
405.8733 86999.81
406.3554 81939.59
406.8376 77076.07
407.3197 72462.57
407.8018 68150.52
408.2839 64093.12
408.7660 60310.43
409.2481 56778.00
409.7303 53484.04
410.2124 50399.04
410.6945 47526.71
411.1766 44828.24
411.6587 42296.46
412.1408 39934.19
412.6230 37725.18
413.1051 35666.20
413.5872 33756.98
414.0693 32052.98
414.5514 30475.73
415.0335 28906.28
415.5157 27331.84
415.9978 25830.63
416.4799 24450.73
416.9620 23191.88
417.4441 22024.15
417.9262 20978.43
418.4084 19979.29
418.8905 18971.79
419.3726 17979.85
419.8547 17083.04
420.3368 16320.26
420.8189 15621.99
421.3011 14877.13
421.7832 14064.24
422.2653 13302.30
422.7474 12606.88
423.2295 11966.37
423.7116 11374.82
424.1938 10828.66
424.6759 10312.81
425.1580 9816.076
425.6401 9338.159
426.1222 8856.355
426.6043 8359.040
427.0865 7871.933
427.5686 7385.614
428.0507 6916.329
428.5328 6490.360
429.0149 6116.162
429.4970 5771.484
429.9792 5412.954
430.4613 5017.980
430.9434 4655.513
431.4255 4320.738
431.9076 4015.002
432.3897 3744.355
432.8719 3503.326
433.3540 3276.574
433.8361 3053.225
434.3182 2834.939
434.8003 2630.670
435.2824 2450.131
435.7646 2271.062
436.2467 2081.335
436.7288 1893.734
437.2109 1718.342
437.6930 1557.940
438.1751 1423.298
438.6573 1336.632
439.1394 1302.099
439.6215 1259.100
440.1036 1204.652
440.5857 1132.692
441.0678 1031.983
441.5500 909.6992
442.0321 792.7383
442.5142 693.8809
442.9963 608.7656
443.4784 530.8076
443.9605 461.0293
444.4427 390.1064
444.9248 310.5186
445.4069 228.8818
445.8890 153.8066
446.3711 79.37695
446.8532 28.26562
447.3354 41.21777
447.8175 83.57617
448.2996 72.76660
448.7817 14.39844
449.2638 124.4932
449.7459 201.8438
450.2281 244.0723
450.7102 285.8096
451.1923 322.4551
451.6744 364.2637
452.1565 433.8701
452.6386 516.1045
453.1208 559.2314
453.6029 531.3086
454.0850 464.9014
454.5671 450.7949
455.0492 563.7646
455.5313 627.5410
456.0135 604.5488
456.4956 555.6475
456.9777 527.6084
457.4598 527.0391
457.9419 536.0938
458.4240 540.3164
458.9062 539.7744
459.3883 520.8096
459.8704 458.4238
460.3525 404.9092
460.8346 375.8896
461.3167 360.4355
461.7989 348.8604
462.2810 337.7988
462.7631 316.3867
463.2452 271.9971
463.7273 207.1973
464.2094 102.0977
464.6916 91.59180
465.1737 283.5479
465.6558 419.9160
466.1379 508.1582
466.6200 584.7520
467.1021 652.2471
467.5843 728.6035
468.0664 856.3408
468.5485 1042.318
469.0306 1233.919
469.5127 1407.029
469.9948 1573.179
470.4770 1749.420
470.9591 1940.607
471.4412 2126.182
471.9233 2288.647
472.4054 2440.688
472.8875 2603.993
473.3697 2782.721
473.8518 2967.603
474.3339 3141.873
474.8160 3308.455
475.2981 3532.527
475.7802 3868.047
476.2624 4201.580
476.7445 4465.872
477.2266 4696.068
477.7087 4965.529
478.1908 5306.115
478.6729 5673.229
479.1551 5979.783
479.6372 6165.687
480.1193 6437.521
480.6014 6819.697
481.0835 7254.230
481.5656 7736.976
482.0478 8244.601
482.5299 8727.472
483.0120 9145.091
483.4941 9527.178
483.9762 9974.882
484.4583 10515.56
484.9405 11068.04
485.4226 11577.11
485.9047 12118.72
486.3868 12761.36
486.8689 13509.27
487.3510 14288.02
487.8332 15013.02
488.3153 15706.27
488.7974 16511.57
489.2795 17464.15
489.7616 18451.46
490.2437 19380.57
490.7259 20307.57
491.2080 21339.93
491.6901 22497.55
492.1722 23745.96
492.6543 25057.10
493.1364 26434.81
493.6186 27886.62
494.1007 29428.60
494.5828 31043.06
495.0649 32714.04
495.5470 34445.59
496.0291 36258.45
496.5113 38163.20
496.9934 40150.25
497.4755 42210.39
497.9576 44349.93
498.4397 46590.04
498.9218 48926.46
499.4040 51362.11
499.8861 53867.26
500.3682 56343.05
500.8503 59063.98
501.3324 62099.88
501.8145 65300.09
502.2967 68577.98
502.7788 71947.46
503.2609 75492.74
503.7430 79291.09
504.2251 83315.51
504.7072 87423.54
505.1894 91607.42
505.6715 95951.29
506.1536 100517.0
506.6357 105220.5
507.1178 110026.7
507.5999 114923.1
508.0821 119799.2
508.5642 124668.8
509.0463 129445.2
509.5284 133964.0
510.0105 138251.1
510.4926 142077.4
510.9748 145322.8
511.4569 147947.9
511.9390 149955.3
512.4211 151292.0
512.9032 152051.2
513.3853 152227.0
513.8674 151875.2
514.3495 151059.8
514.8317 149787.0
515.3138 148111.3
515.7959 146073.6
516.2780 143653.3
516.7601 140976.4
517.2422 137991.8
517.7244 134844.4
518.2065 131550.1
518.6886 128130.3
519.1707 124601.3
519.6528 120978.6
520.1349 117268.4
520.6171 113489.0
521.0992 109610.3
521.5813 105798.5
522.0634 102092.5
522.5455 98430.34
523.0276 94758.17
523.5098 91104.47
523.9919 87548.29
524.4740 84099.46
524.9561 80782.02
525.4382 77571.76
525.9203 74486.00
526.4025 71553.67
526.8846 68830.22
527.3667 66230.77
527.8488 63614.88
528.3309 61008.79
528.8130 58542.34
529.2952 56275.20
529.7773 54143.09
530.2594 52098.96
530.7415 50141.41
531.2236 48244.38
531.7057 46395.05
532.1879 44596.25
532.6700 42858.37
533.1521 41162.77
533.6342 39574.48
534.1163 38150.89
534.5984 36787.92
535.0806 35413.28
535.5627 34038.96
536.0448 32715.61
536.5269 31481.88
537.0090 30330.21
537.4911 29260.46
537.9733 28301.68
538.4554 27327.74
538.9375 26292.22
539.4196 25260.88
539.9017 24251.92
540.3839 23283.97
540.8660 22401.35
541.3481 21667.28
541.8302 21010.45
542.3123 20257.21
542.7944 19392.25
543.2766 18574.40
543.7587 17882.99
544.2408 17264.02
544.7229 16630.34
545.2050 15975.85
545.6871 15358.49
546.1693 14825.48
546.6514 14325.73
547.1335 13795.10
547.6156 13236.77
548.0977 12687.80
548.5798 12168.87
549.0620 11678.75
549.5441 11217.64
550.0262 10766.64
550.5083 10375.07
550.9904 10107.88
551.4725 9850.414
551.9547 9503.098
552.4368 9077.784
552.9189 8653.704
553.4010 8290.498
553.8831 7977.195
554.3652 7677.559
554.8474 7395.236
555.3295 7121.424
555.8116 6852.816
556.2937 6593.035
556.7758 6346.256
557.2579 6113.632
557.7401 5891.900
558.2222 5685.509
558.7043 5487.288
559.1864 5274.510
559.6685 5047.782
560.1506 4842.510
560.6328 4686.398
561.1149 4554.243
561.5970 4381.129
562.0791 4146.945
562.5612 3946.054
563.0433 3836.191
563.5255 3736.657
564.0076 3550.760
564.4897 3301.910
564.9718 3108.291
565.4539 3052.044
565.9360 3084.156
566.4182 3036.447
566.9003 2847.292
567.3824 2693.263
567.8645 2628.010
568.3466 2562.368
568.8287 2423.688
569.3109 2229.279
569.7930 2060.272
570.2751 1972.704
570.7572 1934.314
571.2393 1881.529
571.7214 1814.133
572.2036 1736.896
572.6857 1642.083
573.1678 1549.283
573.6499 1492.611
574.1320 1471.257
574.6141 1416.242
575.0963 1282.563
575.5784 1128.695
576.0605 988.2236
576.5426 869.7852
577.0247 797.9639
577.5068 787.9463
577.9890 807.9238
578.4711 798.7871
578.9532 751.2373
579.4353 696.6582
579.9174 620.4150
580.3995 552.4609
580.8817 529.1875
581.3638 521.4609
581.8459 464.8643
582.3280 324.0869
582.8101 161.2656
583.2922 83.00879
583.7744 95.93750
584.2565 102.6006
584.7386 98.90820
585.2207 73.51953
585.7029 5.384766
586.1850 111.3721
586.6671 172.8623
587.1492 143.6953
587.6313 105.2266
588.1135 122.7344
588.5956 175.4248
589.0777 209.1416
589.5598 209.3848
590.0419 215.3535
590.5240 274.7412
591.0062 391.4072
591.4883 463.6064
591.9704 476.5742
592.4525 469.0908
592.9346 429.0918
593.4167 384.4883
593.8989 375.3281
594.3810 405.3398
594.8631 430.9971
595.3452 405.6045
595.8273 332.7188
596.3094 246.7158
596.7916 123.4971
597.2737 41.32422
597.7558 72.95312
598.2379 144.1846
598.7200 180.8311
599.2021 173.6885
599.6843 146.7734
600.1664 109.9023
600.6485 61.82715
601.1306 2.330078
601.6127 81.34863
602.0948 164.9268
602.5770 248.2842
603.0591 329.9727
603.5412 405.7275
604.0233 467.8633
604.5054 536.6426
604.9875 614.8105
605.4697 697.2461
605.9518 775.9082
606.4339 856.1377
606.9160 954.3467
607.3981 1082.508
607.8802 1220.270
608.3624 1317.589
608.8445 1364.804
609.3266 1446.651
609.8087 1573.140
610.2908 1743.080
610.7729 1984.557
611.2551 2268.737
611.7372 2508.078
612.2193 2646.949
612.7014 2776.450
613.1835 2970.236
613.6656 3201.523
614.1478 3400.628
614.6299 3550.120
615.1120 3714.826
615.5941 3963.313
616.0762 4296.377
616.5583 4623.049
617.0405 4937.918
617.5226 5254.642
618.0047 5568.254
618.4868 5890.616
618.9689 6231.486
619.4510 6592.532
619.9332 6969.126
620.4153 7353.682
620.8974 7752.101
621.3795 8180.109
621.8616 8638.603
622.3438 9125.257
622.8259 9656.027
623.3080 10200.78
623.7901 10704.26
624.2722 11162.73
624.7543 11665.55
625.2365 12271.63
625.7186 12905.38
626.2007 13493.74
626.6828 14054.12
627.1649 14634.61
627.6470 15258.28
628.1292 15910.17
628.6113 16574.54
629.0934 17259.94
629.5755 17925.29
630.0576 18560.72
630.5397 19184.12
631.0219 19802.53
631.5040 20410.72
631.9861 21005.79
632.4682 21587.17
632.9503 22144.62
633.4324 22691.94
633.9146 23208.78
634.3967 23622.10
634.8788 23922.75
635.3609 24142.55
635.8430 24303.35
636.3251 24393.94
636.8073 24372.97
637.2894 24227.35
637.7715 24025.83
638.2536 23794.79
638.7357 23498.04
639.2178 23101.80
639.7000 22614.31
640.1821 22059.77
640.6642 21446.80
641.1463 20789.95
641.6284 20103.21
642.1105 19380.68
642.5927 18676.26
643.0748 18026.66
643.5569 17358.32
644.0390 16607.03
644.5211 15806.38
645.0032 15024.45
645.4854 14265.38
645.9675 13547.42
646.4496 12890.99
646.9317 12277.87
647.4138 11678.05
647.8959 11084.99
648.3781 10503.56
648.8602 9940.187
649.3423 9392.175
649.8244 8861.515
650.3065 8327.808
650.7886 7847.396
651.2708 7432.797
651.7529 7056.027
652.2350 6716.721
652.7171 6399.695
653.1992 6071.969
653.6813 5708.026
654.1635 5345.560
654.6456 5047.609
655.1277 4807.289
655.6098 4560.428
656.0919 4284.557
656.5740 4027.774
657.0562 3848.450
657.5383 3734.507
658.0204 3582.832
658.5025 3357.948
658.9846 3141.745
659.4667 2956.182
659.9489 2791.530
660.4310 2638.790
660.9131 2491.693
661.3952 2357.555
661.8773 2241.059
662.3594 2137.913
662.8416 2030.115
663.3237 1913.576
663.8058 1805.097
664.2879 1699.537
664.7700 1608.950
665.2521 1551.608
665.7343 1513.549
666.2164 1453.672
666.6985 1352.278
667.1806 1241.708
667.6627 1124.840
668.1448 1021.686
668.6270 982.6855
669.1091 1010.655
669.5912 1032.648
670.0733 980.7764
670.5554 870.0361
671.0375 806.8174
671.5197 827.4492
672.0018 836.2051
672.4839 824.4995
672.9660 800.1973
673.4481 754.8926
673.9302 698.7539
674.4124 663.9214
674.8945 675.7896
675.3766 705.4937
675.8587 714.7480
676.3408 706.9248
676.8229 704.3203
677.3051 713.2529
677.7872 726.3330
678.2693 736.6904
678.7514 744.4258
679.2335 747.8755
679.7156 737.8330
680.1978 739.0459
680.6799 766.6665
681.1620 796.4902
681.6441 808.4385
682.1262 800.9990
682.6083 780.8164
683.0905 745.2979
683.5726 714.9727
684.0547 739.0093
684.5368 817.0874
685.0189 864.3101
685.5010 856.0093
685.9832 833.7935
686.4653 829.7808
686.9474 841.2588
687.4295 853.5586
687.9116 863.0596
688.3937 878.6514
688.8759 903.6157
689.3580 936.0210
689.8401 983.8574
690.3222 1039.109
690.8043 1070.158
691.2864 1052.089
691.7686 1012.692
692.2507 1027.232
692.7328 1108.690
693.2149 1162.224
693.6970 1166.227
694.1791 1153.234
694.6613 1139.627
695.1434 1126.524
695.6255 1116.410
696.1076 1111.351
696.5897 1106.042
697.0718 1094.199
697.5540 1082.768
698.0361 1092.416
698.5182 1114.993
699.0003 1103.123
699.4824 1023.570
699.9645 914.6489
700.4467 880.0327
700.9288 952.1372
701.4109 977.4531
701.8930 914.7876
702.3751 843.5664
702.8572 804.6421
703.3394 783.7764
703.8215 754.7710
704.3036 708.5679
704.7857 671.0713
705.2678 672.5278
705.7499 683.7793
706.2321 662.7085
706.7142 610.8081
707.1963 553.1426
707.6784 500.9238
708.1605 457.4751
708.6426 429.7129
709.1248 421.4307
709.6069 415.5068
710.0890 418.8423
710.5711 415.9731
711.0532 402.4888
711.5353 379.5283
712.0175 345.5415
712.4996 299.2788
712.9817 256.9297
713.4638 231.1089
713.9459 213.0806
714.4280 189.2910
714.9102 161.3672
715.3923 143.7002
715.8744 144.2339
716.3565 142.9712
716.8386 104.6851
717.3207 18.42529
717.8029 23.00098
718.2850 30.94434
718.7671 68.26416
719.2492 56.80127
719.7313 21.76123
720.2134 18.20459
720.6956 58.02100
721.1777 87.86377
721.6598 106.4541
722.1419 108.9263
722.6240 75.36230
723.1061 17.41748
723.5883 19.32129
724.0704 21.31543
724.5525 0.9711910
725.0346 41.72070
725.5167 99.82715
725.9988 134.0503
726.4810 125.1333
726.9631 119.7046
727.4452 129.7573
727.9273 140.2764
728.4094 136.8677
728.8915 122.9653
729.3737 114.9214
729.8558 124.6431
730.3379 135.9717
730.8200 125.2749
731.3021 102.8887
731.7842 102.2856
732.2664 128.7578
732.7485 151.8701
733.2306 147.3931
733.7127 122.7202
734.1948 107.7935
734.6769 116.1895
735.1591 109.2485
735.6412 65.16064
736.1233 27.55322
736.6054 23.66064
737.0875 40.93604
737.5696 56.93945
738.0518 66.48291
738.5339 63.21631
739.0160 27.21436
739.4981 19.18359
739.9802 26.67236
740.4623 2.575684
740.9445 19.77197
741.4266 0.7741700
741.9087 40.50757
742.3908 66.41943
742.8729 75.57983
743.3550 83.43066
743.8372 73.39453
744.3193 82.72119
744.8014 147.9587
745.2835 222.0583
745.7656 245.1548
746.2477 212.2361
746.7299 186.3096
747.2120 215.7334
747.6941 259.7051
748.1762 261.9280
748.6583 238.4175
749.1404 245.5115
749.6226 298.7964
750.1047 360.0435
750.5868 388.4841
751.0689 388.3596
751.5510 408.1836
752.0331 462.9478
752.5153 508.7341
752.9974 530.1653
753.4795 547.9675
753.9616 576.0161
754.4437 611.4019
754.9258 643.0198
755.4080 666.1543
755.8901 687.5234
756.3722 708.7395
756.8543 732.3882
757.3364 762.9375
757.8185 800.1484
758.3007 841.7871
758.7828 887.0459
759.2649 932.0679
759.7470 967.6182
760.2291 991.4087
760.7112 1017.624
761.1934 1046.702
761.6755 1078.236
762.1576 1105.023
762.6397 1137.562
763.1218 1193.867
763.6039 1278.735
764.0861 1357.440
764.5682 1421.540
765.0503 1471.880
765.5324 1503.262
766.0145 1522.512
766.4966 1537.100
766.9788 1551.474
767.4609 1580.478
767.9430 1644.225
768.4251 1733.430
768.9072 1795.563
769.3893 1820.926
769.8715 1868.741
770.3536 1958.235
770.8357 2067.939
771.3178 2197.201
771.7999 2334.652
772.2820 2419.600
772.7642 2386.652
773.2463 2384.819
773.7284 2482.689
774.2105 2606.645
774.6926 2681.495
775.1747 2720.582
775.6569 2793.718
776.1390 2946.316
776.6211 3104.869
777.1032 3154.507
777.5853 3116.506
778.0674 3114.251
778.5496 3157.443
779.0317 3231.234
779.5138 3343.456
779.9959 3461.955
780.4780 3525.758
780.9601 3514.945
781.4423 3536.599
781.9244 3602.637
782.4065 3678.803
782.8886 3754.907
783.3707 3832.491
783.8528 3925.362
784.3350 4031.925
784.8171 4122.400
785.2992 4177.882
785.7813 4207.541
786.2634 4219.361
786.7455 4217.055
787.2277 4203.058
787.7098 4177.528
788.1919 4170.763
788.6740 4212.765
789.1561 4286.515
789.6382 4319.968
790.1204 4273.599
790.6025 4277.454
791.0846 4417.230
791.5667 4524.892
792.0488 4498.307
792.5309 4401.422
793.0131 4340.134
793.4952 4338.798
793.9773 4338.689
794.4594 4309.801
794.9415 4267.351
795.4236 4219.062
795.9058 4171.608
796.3879 4141.173
796.8700 4132.890
797.3521 4128.101
797.8342 4104.460
798.3163 4062.737
798.7985 4014.050
799.2806 3958.368
799.7627 3912.224
800.2448 3881.431
800.7269 3854.189
801.2090 3823.724
801.6912 3788.246
802.1733 3741.110
802.6554 3674.198
803.1375 3609.878
803.6196 3550.352
804.1017 3495.429
804.5839 3449.280
805.0660 3407.886
805.5481 3364.265
806.0302 3315.267
806.5123 3259.487
806.9944 3190.436
807.4766 3116.018
807.9587 3054.915
808.4408 3006.742
808.9229 2957.721
809.4050 2901.993
809.8871 2852.587
810.3693 2827.941
810.8514 2827.543
811.3335 2807.080
811.8156 2753.878
812.2977 2701.687
812.7798 2655.581
813.2620 2611.649
813.7441 2567.644
814.2262 2523.767
814.7083 2480.930
815.1904 2439.132
815.6725 2398.816
816.1547 2359.555
816.6368 2322.014
817.1189 2290.612
817.6010 2261.531
818.0831 2222.753
818.5652 2169.306
819.0474 2110.753
819.5295 2055.984
820.0116 2006.312
820.4937 1981.121
820.9758 1988.154
821.4579 1969.345
821.9401 1891.985
822.4222 1807.615
822.9043 1776.852
823.3864 1796.945
823.8685 1786.810
824.3506 1724.237
824.8328 1664.370
825.3149 1620.612
825.7970 1577.723
826.2791 1508.930
826.7612 1434.138
827.2433 1403.405
827.7255 1438.727
828.2076 1488.295
828.6897 1523.724
829.1718 1537.022
829.6539 1496.312
830.1360 1416.402
830.6182 1371.912
831.1003 1391.520
831.5824 1422.054
832.0645 1394.438
832.5466 1404.902
833.0287 1409.213
833.5109 1360.215
833.9930 1387.953
834.4751 1318.547
834.9572 1238.207
835.4393 1238.405
835.9214 1287.566
836.4036 1286.419
836.8857 1193.830
837.3678 1119.575
837.8499 1104.405
838.3320 1103.784
838.8141 1079.536
839.2963 1047.827
839.7784 1051.168
840.2605 1099.799
840.7426 1142.057
841.2247 1127.030
841.7068 1076.733
842.1890 1030.053
842.6711 986.6995
843.1532 942.4429
843.6353 895.4695
844.1174 865.8674
844.5995 875.2305
845.0817 913.0425
845.5638 929.2305
846.0459 913.9414
846.5280 903.3252
847.0101 900.5935
847.4922 902.5608
847.9744 919.2412
848.4565 932.8655
848.9386 907.2610
849.4207 830.1135
849.9028 790.6675
850.3849 857.5842
850.8671 920.4685
851.3492 901.3447
851.8313 844.9893
852.3134 816.8140
852.7955 823.5825
853.2776 824.0142
853.7598 783.2646
854.2419 731.4514
854.7240 722.9185
855.2061 745.1189
855.6882 744.1731
856.1703 713.3684
856.6525 679.3672
857.1346 657.6768
857.6167 645.3105
858.0988 634.3708
858.5809 622.8870
859.0630 613.6914
859.5452 612.6523
860.0273 607.3188
860.5094 582.2778
860.9915 560.8337
861.4736 570.3171
861.9557 607.6169
862.4379 634.5166
862.9200 642.9265
863.4021 634.7385
863.8842 601.2417
864.3663 559.4893
864.8484 510.6370
865.3306 467.4053
865.8127 458.9146
866.2948 496.0632
866.7769 540.1008
867.2590 558.8889
867.7411 554.7961
868.2233 519.1111
868.7054 460.9976
869.1875 434.1338
869.6696 454.3530
870.1517 483.0522
870.6339 485.6550
871.1160 464.4724
871.5981 426.4126
872.0802 362.5259
872.5623 313.8755
873.0444 289.4368
873.5266 272.5459
874.0087 249.8372
874.4908 230.8105
874.9729 238.9644
875.4550 283.7986
875.9371 306.2900
876.4193 282.0859
876.9014 251.5354
877.3835 214.8601
877.8656 188.5603
878.3477 204.9189
878.8298 252.6138
879.3120 275.8000
879.7941 238.5208
880.2762 189.3577
880.7583 177.6550
881.2404 185.4121
881.7225 182.2908
882.2047 168.2927
882.6868 148.9839
883.1689 126.4575
883.6510 111.6892
884.1331 120.6548
884.6152 148.8750
885.0974 164.0496
885.5795 166.4343
886.0616 149.9023
886.5437 105.2261
887.0258 60.79272
887.5079 40.60352
887.9901 39.07300
888.4722 33.16309
888.9543 12.56299
889.4364 7.784424
889.9185 55.60449
890.4006 76.60498
890.8828 2.406494
891.3649 94.35742
891.8470 118.5022
892.3291 62.78809
892.8112 7.663330
893.2933 23.53662
893.7755 37.22437
894.2576 24.83081
894.7397 5.406738
895.2218 4.711670
895.7039 17.78052
896.1860 20.72388
896.6682 5.662109
897.1503 11.69946
897.6324 11.50513
898.1145 0.5334470
898.5966 7.640137
899.0787 9.879150
899.5609 13.31982
900.0430 20.06860
900.5251 25.21631
901.0072 24.39185
901.4893 17.68140
901.9714 4.640137
902.4536 18.17480
902.9357 34.86890
903.4178 42.16064
903.8999 47.14575
904.3820 57.40796
904.8641 66.38281
905.3463 57.76343
905.8284 27.72241
906.3105 9.525879
906.7926 15.65234
907.2747 21.08984
907.7568 20.43701
908.2390 13.99585
908.7211 5.901123
909.2032 30.62109
909.6853 34.07666
910.1674 1.141846
910.6495 29.28003
911.1317 25.46582
911.6138 10.29224
912.0959 9.419922
912.5780 18.61499
913.0601 22.25171
913.5422 17.24902
914.0244 18.47119
914.5065 44.31250
914.9886 75.92383
915.4707 68.00830
915.9528 27.09277
916.4349 7.231689
916.9171 29.56445
917.3992 46.26392
917.8813 62.66382
918.3634 66.57471
918.8455 32.59839
919.3276 43.33386
919.8098 81.84595
920.2919 74.97156
920.7740 49.80164
921.2561 2.443604
921.7382 51.83325
922.2203 69.01489
922.7025 62.79333
923.1846 69.89453
923.6667 104.9309
924.1488 121.1814
924.6309 101.1329
925.1130 76.81079
925.5952 46.76538
926.0773 30.69299
926.5594 66.60779
927.0415 146.2834
927.5236 193.2927
928.0057 153.1443
928.4879 104.7440
928.9700 105.4099
929.4521 121.6833
929.9342 113.2314
930.4163 84.99805
930.8984 62.08435
931.3806 53.58423
931.8627 46.77490
932.3448 29.90112
932.8269 5.974731
933.3090 30.08459
933.7911 69.62341
934.2733 66.19141
934.7554 13.09680
935.2375 41.51965
935.7196 65.08850
936.2017 69.48840
936.6838 80.02698
937.1660 97.60535
937.6481 107.5402
938.1302 110.6814
938.6123 97.08215
939.0944 53.08167
939.5765 14.07043
940.0587 20.60010
940.5408 64.38879
941.0229 87.15247
941.5050 80.87646
941.9871 68.57837
942.4692 34.17236
942.9514 12.61523
943.4335 25.50146
943.9156 54.81531
944.3977 78.32788
944.8798 94.74182
945.3619 113.5934
945.8441 149.2970
946.3262 171.5898
946.8083 160.3665
947.2904 138.9824
947.7725 129.0017
948.2546 124.6694
948.7368 105.0057
949.2189 60.86829
949.7010 25.05286
950.1831 36.19739
950.6652 53.68115
951.1473 25.67615
951.6295 22.87036
952.1116 52.71533
952.5937 54.35938
953.0758 19.34229
953.5579 61.42151
954.0400 143.4812
954.5222 158.2869
955.0043 127.4469
955.4864 113.9791
955.9685 118.1677
956.4506 121.7501
956.9327 119.3074
957.4149 116.0458
957.8970 117.2981
958.3791 119.1196
958.8612 106.0267
959.3433 76.23596
959.8254 58.65466
960.3076 56.38208
960.7897 58.50269
961.2718 58.01660
961.7539 66.49976
962.2360 105.6918
962.7181 172.7031
963.2003 193.3945
963.6824 134.2059
964.1645 100.2799
964.6466 117.3065
965.1287 139.8138
965.6108 137.8743
966.0930 129.6215
966.5751 150.0673
967.0572 205.0449
967.5393 225.4926
968.0214 168.7605
968.5035 122.9226
968.9857 125.7538
969.4678 138.5792
969.9499 128.7657
970.4320 104.1511
970.9141 86.30847
971.3962 80.13477
971.8784 86.00684
972.3605 110.8936
972.8426 137.9652
973.3247 172.9429
973.8068 197.9343
974.2889 174.1472
974.7711 112.9811
975.2532 72.60498
975.7353 81.86145
976.2174 104.0122
976.6995 108.0476
977.1816 100.2050
977.6638 92.59949
978.1459 87.40674
978.6280 82.01770
979.1101 77.51611
979.5922 75.83240
980.0743 79.14575
980.5565 87.26758
981.0386 105.9904
981.5207 129.0504
982.0028 128.9475
982.4849 106.6660
982.9670 78.30847
983.4492 49.11377
983.9313 46.46655
984.4134 104.9352
984.8955 194.5928
985.3776 209.4963
985.8597 146.3942
986.3419 121.3572
986.8240 151.1837
987.3061 165.3014
987.7882 127.4215
988.2703 78.99280
988.7524 72.09534
989.2346 101.7704
989.7167 115.8611
990.1988 104.4447
990.6809 108.7808
991.1630 146.4485
991.6451 169.7013
992.1273 146.4434
992.6094 111.2819
993.0915 117.0371
993.5736 165.4949
994.0557 176.9342
994.5378 105.2896
995.0200 64.57483
995.5021 95.52869
995.9842 127.8949
996.4663 111.5272
996.9484 76.78528
997.4305 82.11963
997.9127 138.9520
998.3948 166.2383
998.8769 119.0590
999.3590 79.66687
999.8411 78.46960
1000.323 88.41467
1000.805 94.58069
1001.287 95.95142
1001.770 89.65613
1002.252 73.80371
1002.734 59.52307
1003.216 43.00427
1003.698 39.61792
1004.180 70.00513
1004.662 109.5804
1005.144 135.6212
1005.627 146.2667
1006.109 145.0447
1006.591 132.9071
1007.073 113.0017
1007.555 71.91113
1008.037 40.16699
1008.519 57.49805
1009.001 95.64844
1009.483 110.1404
1009.966 100.3252
1010.448 90.67236
1010.930 94.50293
1011.412 100.9449
1011.894 86.42627
1012.376 67.61658
1012.858 79.30920
1013.340 107.5570
1013.823 110.2982
1014.305 86.02075
1014.787 72.20203
1015.269 90.89905
1015.751 120.7484
1016.233 140.3612
1016.715 146.0364
1017.197 114.2075
1017.679 55.95789
1018.162 26.37341
1018.644 36.56470
1019.126 64.32214
1019.608 97.39270
1020.090 123.0339
1020.572 111.2845
1021.054 68.29810
1021.536 37.40674
1022.018 18.99170
1022.501 13.13330
1022.983 19.93994
1023.465 37.75012
1023.947 67.34607
1024.429 100.0741
1024.911 117.5430
1025.393 119.4644
1025.875 111.6626
1026.358 91.72595
1026.840 81.27905
1027.322 86.75610
1027.804 99.89282
1028.286 116.4232
1028.768 132.2867
1029.250 137.7836
1029.732 132.8646
1030.214 118.3220
1030.697 85.36523
1031.179 73.20947
1031.661 103.1755
1032.143 130.0697
1032.625 114.7078
1033.107 72.05402
1033.589 44.64471
1034.071 32.57086
1034.553 36.59027
1035.036 66.42932
1035.518 92.12402
1036.000 114.2902
1036.482 121.1204
1036.964 76.42023
1037.446 6.326111
1037.928 0.1572880
1038.410 86.96893
1038.893 132.2329
1039.375 112.2034
1039.857 87.33472
1040.339 60.78534
1040.821 45.49359
1041.303 51.89972
1041.785 76.13342
1042.267 110.3303
1042.750 165.9641
1043.232 190.6320
1043.714 157.7710
1044.196 128.8552
1044.678 131.0601
1045.160 129.8220
1045.642 80.50000
1046.124 12.00323
1046.606 1.571594
1047.089 73.81079
1047.571 119.1224
1048.053 105.3004
1048.535 91.21069
1049.017 96.97772
1049.499 104.4546
1049.981 96.43011
1050.463 80.31549
1050.945 74.58911
1051.428 83.96497
1051.910 88.30927
1052.392 68.97540
1052.874 64.90906
1053.356 109.9929
1053.838 151.7269
1054.320 140.4572
1054.802 97.21735
1055.285 68.57788
1055.767 62.86383
1056.249 58.05780
1056.731 42.54791
1057.213 34.44043
1057.695 43.91571
1058.177 60.49158
1058.659 77.32208
1059.141 94.65662
1059.624 122.4200
1060.106 162.1470
1060.588 167.0198
1061.070 78.93921
1061.552 10.89508
1062.034 24.63531
1062.516 59.59644
1062.998 73.84888
1063.480 72.77338
1063.963 70.70490
1064.445 70.33716
1064.927 68.92688
1065.409 70.93884
1065.891 64.08795
1066.373 24.28320
1066.855 6.396179
1067.337 16.94189
1067.820 64.77832
1068.302 85.02917
1068.784 73.98871
1069.266 76.82336
1069.748 130.1691
1070.230 165.7633
1070.712 132.4127
1071.194 91.64764
1071.677 92.89581
1072.159 114.6133
1072.641 124.8462
1073.123 119.4257
1073.605 106.2662
1074.087 84.21973
1074.569 64.86310
1075.051 55.44128
1075.533 48.46277
1076.016 30.40411
1076.498 16.99347
1076.980 34.86499
1077.462 78.14905
1077.944 110.8285
1078.426 117.6282
1078.908 124.6348
1079.390 159.6080
1079.873 181.5760
1080.355 144.6682
1080.837 92.99341
1081.319 79.83167
1081.801 100.2722
1082.283 122.2592
1082.765 138.4473
1083.247 141.5506
1083.729 119.3110
1084.212 94.19946
1084.694 76.93842
1085.176 65.23279
1085.658 60.91400
1086.140 58.45197
1086.622 41.63727
1087.104 5.344421
1087.586 11.40125
1088.068 22.97003
1088.551 61.38232
1089.033 84.08551
1089.515 97.75208
1089.997 111.1946
1090.479 119.3521
1090.961 105.9689
1091.443 70.20129
1091.925 49.79437
1092.408 91.95770
1092.890 107.0889
1093.372 11.04114
1093.854 74.76416
1094.336 48.57019
1094.818 37.12659
1095.300 112.5225
1095.782 162.6213
1096.265 168.3799
1096.747 96.95569
1097.229 32.79395
1097.711 1.5807999E-02
1098.193 13.18335
1098.675 6.900146
1099.157 10.28552
1099.639 33.91760
1100.121 60.16370
1100.604 78.55029
1101.086 86.56677
1101.568 88.17944
1102.050 78.28088
1102.532 69.49146
1103.014 66.10651
1103.496 67.55206
1103.978 74.79401
1104.460 85.82574
1104.943 94.93579
1105.425 99.66431
1105.907 111.1664
1106.389 158.6818
1106.871 173.9763
1107.353 90.16046
1107.835 17.68103
1108.317 67.46881
1108.800 164.5744
1109.282 161.6983
1109.764 43.72302
1110.246 18.28442
1110.728 38.96356
1111.210 81.37695
1111.692 91.46710
1112.174 83.00781
1112.656 42.31396
1113.139 0.3931880
1113.621 0.8509520
1114.103 40.58362
1114.585 69.17242
1115.067 80.78015
1115.549 91.24274
1116.031 103.5458
1116.513 110.4659
1116.995 110.6890
1117.478 103.3174
1117.960 79.57306
1118.442 49.50690
1118.924 47.98260
1119.406 41.68939
1119.888 35.67822
1120.370 65.17627
1120.852 50.68085
1121.335 88.30090
1121.817 124.9931
1122.299 127.6423
1122.781 105.5262
1123.263 70.71802
1123.745 22.57239
1124.227 0.5001830
1124.709 8.212952
1125.192 32.71191
1125.674 83.36475
1126.156 115.8270
1126.638 106.4546
1127.120 76.82092
1127.602 48.70184
1128.084 25.57642
1128.566 24.34540
1129.048 47.57739
1129.531 78.43585
1130.013 120.8171
1130.495 132.3207
1130.977 95.40283
1131.459 52.70514
1131.941 39.35718
1132.423 42.58527
1132.905 28.70862
1133.387 39.40936
1133.870 13.47491
1134.352 65.16943
1134.834 108.2367
1135.316 133.1733
1135.798 133.8038
1136.280 105.7076
1136.762 68.49146
1137.244 44.71295
1137.727 35.32745
1138.209 45.41364
1138.691 67.57886
1139.173 65.64954
1139.655 45.01147
1140.137 47.17249
1140.619 84.11945
1141.101 118.5590
1141.583 120.1399
1142.066 102.4181
1142.548 73.09271
1143.030 46.58105
1143.512 66.24310
1143.994 111.6108
1144.476 115.3033
1144.958 75.57153
1145.440 57.05017
1145.922 95.23816
1146.405 129.3297
1146.887 81.86243
1147.369 19.80054
1147.851 20.55170
1148.333 56.16937
1148.815 103.2217
1149.297 142.3137
1149.779 128.8897
1150.262 57.23438
1150.744 2.311218
1151.226 7.264465
1151.708 2.912781
1152.190 22.82050
1152.672 44.40747
1153.154 61.40033
1153.636 69.51849
1154.119 58.31152
1154.601 32.41364
1155.083 13.78876
1155.565 8.045715
1156.047 11.02338
1156.529 29.69647
1157.011 47.96021
1157.493 63.07574
1157.975 70.78241
1158.458 57.82257
1158.940 38.13629
1159.422 41.75586
1159.904 72.73273
1160.386 102.6153
1160.868 137.9088
1161.350 158.2812
1161.832 170.8011
1162.314 155.3690
1162.797 76.64484
1163.279 7.659119
1163.761 33.93814
1164.243 13.06122
1164.725 4.740601
1165.207 17.78131
1165.689 34.08319
1166.171 55.87811
1166.654 76.88910
1167.136 97.89117
1167.618 111.4516
1168.100 113.2584
1168.582 101.0824
1169.064 61.26056
1169.546 0.5635990
1170.028 32.60959
1170.510 35.02737
1170.993 4.300476
1171.475 60.98111
1171.957 107.7471
1172.439 115.9221
1172.921 106.1621
1173.403 95.26404
1173.885 86.50574
1174.367 88.07941
1174.849 96.92612
1175.332 105.8271
1175.814 112.3062
1176.296 103.4166
1176.778 81.29462
1177.260 72.43924
1177.742 89.42181
1178.224 103.3894
1178.706 79.12350
1179.189 44.55020
1179.671 31.65283
1180.153 34.32642
1180.635 50.69714
1181.117 72.69498
1181.599 83.13535
1182.081 80.97733
1182.563 84.36728
1183.046 106.8396
1183.528 118.7635
1184.010 95.33783
1184.492 63.49512
1184.974 22.88153
1185.456 1.400940
1185.938 33.87732
1186.420 101.3289
1186.902 128.7938
1187.385 102.0221
1187.867 94.06076
1188.349 161.2779
1188.831 184.7783
1189.313 90.39368
1189.795 9.928162
1190.277 26.01105
1190.759 70.30792
1191.241 72.06705
1191.724 88.26944
1192.206 100.7910
1192.688 87.17102
1193.170 97.64462
1193.652 67.01862
1194.134 33.88385
1194.616 3.458374
1195.098 22.88458
1195.581 48.38815
1196.063 53.79663
1196.545 2.785889
1197.027 80.74066
1197.509 73.92203
1197.991 110.3200
1198.473 137.6584
1198.955 101.8520
1199.438 147.4893
1199.920 93.91772
1200.402 38.70767
1200.884 47.34525
1201.366 25.74243
1201.848 70.04410
1202.330 48.21854
1202.812 63.40948
1203.294 98.42401
1203.776 124.9954
1204.259 136.6859
1204.741 125.9132
1205.223 92.98492
1205.705 55.49976
1206.187 15.30264
1206.669 4.995544
1207.151 23.94940
1207.633 63.87564
1208.116 99.49744
1208.598 116.7538
1209.080 85.42090
1209.562 29.87466
1210.044 14.75229
1210.526 54.95807
1211.008 82.78015
1211.490 80.45880
1211.973 71.95154
1212.455 43.83173
1212.937 33.09662
1213.419 74.09235
1213.901 120.2268
1214.383 121.9954
1214.865 92.46585
1215.347 76.19537
1215.829 75.39600
1216.312 72.36633
1216.794 66.41428
1217.276 62.44986
1217.758 62.21143
1218.240 56.72046
1218.722 39.90161
1219.204 29.56128
1219.686 49.06851
1220.168 37.74463
1220.651 79.39554
1221.133 52.82901
1221.615 61.09967
1222.097 95.55624
1222.579 91.68823
1223.061 44.86716
1223.543 8.149567
1224.025 6.795044
1224.508 22.58798
1224.990 52.28214
1225.472 75.92047
1225.954 67.46097
1226.436 46.43423
1226.918 20.11517
1227.400 4.797760
1227.882 37.82681
1228.365 108.9208
1228.847 147.1479
1229.329 121.1459
1229.811 101.3914
1230.293 126.8587
1230.775 134.8143
1231.257 78.30206
1231.739 26.79846
1232.221 27.65747
1232.703 57.26611
1233.186 94.22299
1233.668 134.1149
1234.150 141.1340
1234.632 101.5248
1235.114 84.33188
1235.596 94.63815
1236.078 105.6058
1236.560 113.9558
1237.043 110.9426
1237.525 89.84155
1238.007 69.99017
1238.489 81.07047
1238.971 62.60614
1239.453 96.55780
1239.935 64.93817
1240.417 69.97415
1240.900 97.83453
1241.382 114.8138
1241.864 118.4227
1242.346 120.1200
1242.828 128.1919
1243.310 135.4217
1243.792 140.2578
1244.274 137.2301
1244.756 108.5728
1245.239 82.13159
1245.721 92.64728
1246.203 118.9930
1246.685 130.7278
1247.167 125.6432
1247.649 102.9374
1248.131 51.18512
1248.613 19.35132
1249.095 21.29053
1249.578 31.17505
1250.060 45.86554
1250.542 67.71692
1251.024 110.5561
1251.506 139.6191
1251.988 105.2588
1252.470 29.51001
1252.952 0.7073970
1253.435 15.68066
1253.917 35.54376
1254.399 58.38055
1254.881 94.21881
1255.363 142.2312
1255.845 159.5810
1256.327 126.9670
1256.809 92.12494
1257.292 102.5544
1257.774 132.1666
1258.256 157.9114
1258.738 170.5601
1259.220 145.1088
1259.702 103.7764
1260.184 84.11670
1260.666 85.49622
1261.148 86.21753
1261.630 80.31860
1262.113 84.36292
1262.595 114.0322
1263.077 140.0655
1263.559 154.7034
1264.041 163.5459
1264.523 167.6165
1265.005 168.1042
1265.487 165.5729
1265.970 160.4953
1266.452 154.2667
1266.934 146.9302
1267.416 132.5586
1267.898 107.9094
1268.380 107.0562
1268.862 135.5702
1269.344 138.9745
1269.827 99.21295
1270.309 62.75592
1270.791 63.47070
1271.273 82.99591
1271.755 101.5230
1272.237 116.5627
1272.719 127.3807
1273.201 128.8727
1273.683 104.9855
1274.166 66.30035
1274.648 28.93634
1275.130 3.008911
1275.612 18.80261
1276.094 104.1633
1276.576 158.5303
1277.058 108.9257
1277.540 66.61072
1278.022 80.72839
1278.505 109.0256
1278.987 131.3661
1279.469 146.5548
1279.951 156.4222
1280.433 157.7626
1280.915 134.4360
1281.397 81.91998
1281.879 37.26602
1282.362 1.553253
1282.844 2.377533
1283.326 40.59082
1283.808 81.74756
1284.290 95.54874
1284.772 78.52948
1285.254 47.50043
1285.736 0.0000000E+00
