#Shining_header
#Data type:raman_database
#CAS:Not entered
#Material scientific name:Manganaxinite
#Manufacturer:Not entered
#Laser model:Not entered
#Spectrometer model:Not entered
#Testing unit:Not entered
#Test time:Not entered
#Other experimental details:Not entered
#Shining_data
90.59570 0.0000000E+00
91.07782 0.2507320
91.55994 4.399414
92.04205 11.80560
92.52417 20.93707
93.00629 31.08081
93.48840 38.07019
93.97052 38.40918
94.45264 31.44348
94.93475 27.42780
95.41687 22.80658
95.89898 16.92365
96.38110 11.67767
96.86321 8.729858
97.34533 8.176392
97.82745 8.269348
98.30956 9.069092
98.79168 10.04572
99.27380 12.24060
99.75591 16.28522
100.2380 21.90601
100.7201 27.89734
101.2023 33.30042
101.6844 38.43744
102.1665 44.61694
102.6486 50.99500
103.1307 58.41763
103.6128 67.79205
104.0950 79.52942
104.5771 93.97794
105.0592 111.4308
105.5413 131.5927
106.0234 154.2776
106.5055 179.9038
106.9877 207.7141
107.4698 236.4234
107.9519 269.9394
108.4340 300.1298
108.9161 327.4090
109.3982 349.2977
109.8804 363.0482
110.3625 367.2470
110.8446 361.8913
111.3267 349.8895
111.8088 327.7595
112.2909 302.4469
112.7731 274.9290
113.2552 245.6281
113.7373 216.4370
114.2194 190.2946
114.7015 167.9907
115.1836 148.3739
115.6658 132.5776
116.1479 119.0180
116.6300 106.2734
117.1121 93.84085
117.5942 82.19156
118.0763 72.66986
118.5584 65.56403
119.0406 59.08099
119.5227 52.73337
120.0048 46.58325
120.4869 40.80765
120.9690 35.47916
121.4511 30.93890
121.9333 27.50812
122.4154 25.48108
122.8975 24.03171
123.3796 22.68329
123.8617 21.47556
124.3438 19.94092
124.8260 18.15115
125.3081 15.80411
125.7902 12.21338
126.2723 6.661469
126.7544 0.3767700
127.2365 3.721924
127.7187 4.653015
128.2008 4.846924
128.6829 4.692413
129.1650 4.476013
129.6471 4.617340
130.1292 5.472565
130.6114 6.955566
131.0935 7.778748
131.5756 7.283569
132.0577 6.722656
132.5398 6.461517
133.0219 6.393402
133.5041 6.221436
133.9862 5.730927
134.4683 4.951385
134.9504 3.431763
135.4325 1.108154
135.9146 1.769226
136.3968 4.828339
136.8789 8.073334
137.3610 12.35947
137.8431 18.89185
138.3252 28.27548
138.8073 36.78973
139.2895 43.69934
139.7716 49.79053
140.2537 56.15637
140.7358 63.14142
141.2179 69.89398
141.7000 75.27066
142.1821 79.45462
142.6643 82.53485
143.1464 84.59219
143.6285 85.58386
144.1106 85.19778
144.5927 82.53159
145.0748 79.34845
145.5570 77.13431
146.0391 75.92004
146.5212 75.25803
147.0033 74.69717
147.4854 74.17715
147.9675 74.35556
148.4497 76.53815
148.9318 79.85666
149.4139 85.03091
149.8960 92.15573
150.3781 100.5871
150.8602 109.5743
151.3424 119.9677
151.8245 129.1053
152.3066 137.4031
152.7887 144.3173
153.2708 149.3667
153.7529 152.3681
154.2351 153.6539
154.7172 153.9709
155.1993 151.7308
155.6814 150.4175
156.1635 150.7371
156.6456 151.9000
157.1278 152.8739
157.6099 153.1111
158.0920 152.9749
158.5741 154.0769
159.0562 157.9302
159.5383 161.1303
160.0205 162.4797
160.5026 162.5208
160.9847 162.4392
161.4668 162.7910
161.9489 163.6459
162.4310 165.0772
162.9131 166.6553
163.3953 169.1039
163.8774 172.7778
164.3595 177.6683
164.8416 183.6352
165.3237 190.3720
165.8058 198.3892
166.2880 208.5166
166.7701 221.4074
167.2522 236.0474
167.7343 251.2197
168.2164 266.7629
168.6985 283.5074
169.1807 303.6104
169.6628 324.7530
170.1449 344.5648
170.6270 363.7533
171.1091 380.0553
171.5912 387.9600
172.0734 385.5816
172.5555 377.2865
173.0376 364.2589
173.5197 347.7286
174.0018 329.0694
174.4839 308.6996
174.9661 287.0464
175.4482 266.4687
175.9303 247.9731
176.4124 229.3694
176.8945 209.6959
177.3766 189.5074
177.8588 170.0096
178.3409 151.8984
178.8230 135.0783
179.3051 119.4138
179.7872 104.3832
180.2693 90.92392
180.7515 79.58527
181.2336 70.12811
181.7157 62.13657
182.1978 55.32071
182.6799 49.79521
183.1620 44.60936
183.6441 39.24916
184.1263 34.40994
184.6084 30.35941
185.0905 27.14363
185.5726 24.81020
186.0547 23.24193
186.5368 22.55441
187.0190 22.87256
187.5011 24.14067
187.9832 26.28470
188.4653 29.27838
188.9474 33.14206
189.4296 37.87225
189.9117 43.22028
190.3938 49.25287
190.8759 57.20699
191.3580 67.32303
191.8401 79.37329
192.3223 93.46243
192.8044 109.8643
193.2865 127.4306
193.7686 146.7768
194.2507 166.9147
194.7328 183.7518
195.2150 197.2994
195.6971 206.5822
196.1792 209.0994
196.6613 203.1341
197.1434 193.2477
197.6255 181.1257
198.1077 167.7448
198.5898 156.0045
199.0719 146.9319
199.5540 140.5437
200.0361 137.0936
200.5182 137.1895
201.0004 139.7688
201.4825 144.0224
201.9646 149.8881
202.4467 157.2329
202.9288 166.2438
203.4109 176.8626
203.8930 187.7710
204.3752 198.6345
204.8573 210.1919
205.3394 222.8566
205.8215 236.3782
206.3036 250.3283
206.7857 264.5963
207.2679 279.2906
207.7500 292.3293
208.2321 302.2244
208.7142 311.6938
209.1963 321.6908
209.6784 331.9842
210.1606 341.7886
210.6427 350.4792
211.1248 358.0159
211.6069 364.2554
212.0890 369.5980
212.5711 373.4378
213.0533 375.6623
213.5354 376.1772
214.0175 374.8607
214.4996 371.5652
214.9817 366.1866
215.4638 359.0925
215.9460 350.3561
216.4281 340.2896
216.9102 328.4236
217.3923 315.1459
217.8744 301.5996
218.3565 288.9437
218.8387 277.3514
219.3208 265.0278
219.8029 251.9457
220.2850 238.2139
220.7671 223.6707
221.2492 208.4053
221.7314 192.8796
222.2135 177.3415
222.6956 161.8342
223.1777 147.1144
223.6598 133.0522
224.1419 119.8248
224.6240 107.7561
225.1062 96.80594
225.5883 86.54860
226.0704 76.76625
226.5525 67.48384
227.0346 58.34549
227.5167 48.61967
227.9989 39.49481
228.4810 32.51329
228.9631 27.80704
229.4452 23.51123
229.9273 18.15941
230.4094 12.22426
230.8916 6.993988
231.3737 3.001358
231.8558 0.3523410
232.3379 3.862411
232.8200 7.635849
233.3021 10.81711
233.7843 12.33128
234.2664 12.98372
234.7485 14.01483
235.2306 16.17624
235.7127 18.47450
236.1948 19.51724
236.6770 19.12178
237.1591 18.22865
237.6412 17.17876
238.1233 15.93866
238.6054 14.39403
239.0875 12.46916
239.5697 10.36786
240.0518 8.470078
240.5339 6.861359
241.0160 5.113342
241.4981 3.094360
241.9802 0.8453830
242.4624 1.713455
242.9445 4.687271
243.4266 7.726685
243.9087 10.08949
244.3908 11.35532
244.8729 13.12935
245.3550 15.73561
245.8372 19.03520
246.3193 23.02322
246.8014 27.72456
247.2835 32.92203
247.7656 38.38557
248.2477 44.24886
248.7299 50.03922
249.2120 55.49155
249.6941 60.87875
250.1762 66.47148
250.6583 72.35124
251.1404 78.23349
251.6226 83.62527
252.1047 88.11209
252.5868 92.99951
253.0689 98.75583
253.5510 104.6619
254.0331 110.4410
254.5153 115.9363
254.9974 120.9001
255.4795 125.0142
255.9616 128.3171
256.4437 130.5117
256.9258 131.2751
257.4080 131.4143
257.8901 131.2452
258.3722 130.9273
258.8543 130.6664
259.3364 130.6407
259.8185 130.4458
260.3007 131.6602
260.7828 134.3130
261.2649 138.0198
261.7470 142.6542
262.2291 148.1500
262.7112 154.3395
263.1934 161.0781
263.6755 168.3892
264.1576 176.2683
264.6397 184.5693
265.1218 193.3957
265.6039 202.6225
266.0861 212.3201
266.5682 222.8754
267.0503 234.7999
267.5324 248.3779
268.0145 261.3203
268.4966 274.0196
268.9788 285.8922
269.4609 296.6898
269.9430 306.3716
270.4251 314.9464
270.9072 322.4403
271.3893 328.8061
271.8715 333.8212
272.3536 338.2105
272.8357 340.8931
273.3178 341.0804
273.7999 339.1265
274.2820 335.9524
274.7642 332.1294
275.2463 327.6413
275.7284 322.2852
276.2105 316.5808
276.6926 309.7056
277.1747 300.8960
277.6568 290.6583
278.1389 280.2318
278.6211 270.3588
279.1032 260.7110
279.5853 249.6510
280.0674 235.9065
280.5495 222.5128
281.0316 210.4123
281.5138 199.1445
281.9959 187.7589
282.4780 175.7751
282.9601 163.7021
283.4422 153.1241
283.9243 143.7159
284.4065 135.9308
284.8886 130.1233
285.3707 125.9339
285.8528 122.9037
286.3349 120.9018
286.8170 119.8724
287.2992 119.6001
287.7813 119.5319
288.2634 121.8593
288.7455 127.9800
289.2276 136.2551
289.7097 144.6757
290.1919 152.6997
290.6740 160.9129
291.1561 170.2093
291.6382 180.7155
292.1203 192.0510
292.6024 203.9845
293.0846 216.7524
293.5667 230.8315
294.0488 246.3893
294.5309 262.6729
295.0130 279.2030
295.4951 295.9674
295.9773 312.1571
296.4594 327.3579
296.9415 342.2910
297.4236 358.0366
297.9057 374.3694
298.3878 389.5421
298.8700 402.3699
299.3521 412.7527
299.8342 421.8839
300.3163 429.8945
300.7984 436.4057
301.2805 441.3632
301.7627 444.7073
302.2448 446.2170
302.7269 445.5426
303.2090 443.0227
303.6911 439.9487
304.1732 436.3607
304.6554 432.2410
305.1375 427.4775
305.6196 422.1713
306.1017 416.7318
306.5838 411.5470
307.0659 405.8694
307.5481 398.0225
308.0302 387.6825
308.5123 377.2950
308.9944 368.1329
309.4765 359.3947
309.9586 349.6657
310.4408 338.4585
310.9229 326.9531
311.4050 316.7535
311.8871 307.7635
312.3692 299.5214
312.8513 291.2079
313.3335 283.9662
313.8156 278.9459
314.2977 276.2765
314.7798 275.6337
315.2619 276.7179
315.7440 279.7222
316.2262 285.2982
316.7083 295.1154
317.1904 306.4295
317.6725 317.3833
318.1546 327.8174
318.6367 337.5804
319.1188 347.2201
319.6010 355.8785
320.0831 360.8902
320.5652 363.0165
321.0473 360.8971
321.5294 353.4138
322.0115 341.0898
322.4937 325.1792
322.9758 305.9274
323.4579 283.8764
323.9400 260.5937
324.4221 234.7645
324.9042 210.5034
325.3864 189.2709
325.8685 170.5423
326.3506 153.0530
326.8327 136.3201
327.3148 120.9971
327.7969 108.3076
328.2791 98.26544
328.7612 89.73201
329.2433 82.66121
329.7254 76.96918
330.2075 72.79274
330.6896 70.15533
331.1718 68.30005
331.6539 66.35574
332.1360 64.32793
332.6181 63.64943
333.1002 64.99078
333.5823 67.22641
334.0645 69.42798
334.5466 71.64897
335.0287 74.71097
335.5108 79.22643
335.9929 85.12460
336.4750 91.35196
336.9572 97.19965
337.4393 104.1052
337.9214 112.8640
338.4035 123.1671
338.8856 133.9937
339.3677 144.6802
339.8499 156.0001
340.3320 170.3079
340.8141 188.4478
341.2962 207.4047
341.7783 226.1213
342.2604 245.5424
342.7426 267.3696
343.2247 292.0108
343.7068 317.4552
344.1889 341.1851
344.6710 363.4998
345.1531 382.0382
345.6353 397.5005
346.1174 408.5327
346.5995 413.7290
347.0816 413.1636
347.5637 408.1056
348.0458 399.3831
348.5280 386.7805
349.0101 372.8270
349.4922 355.4706
349.9743 339.0603
350.4564 325.4522
350.9385 314.3838
351.4207 305.0070
351.9028 296.9712
352.3849 290.1037
352.8670 283.6132
353.3491 278.0107
353.8312 272.1693
354.3134 267.2472
354.7955 261.5226
355.2776 252.8564
355.7597 240.5216
356.2418 225.5302
356.7239 209.3722
357.2061 191.3814
357.6882 173.4837
358.1703 155.0762
358.6524 137.1627
359.1345 120.3329
359.6166 104.6689
360.0987 90.29898
360.5808 77.27733
361.0630 65.63519
361.5451 55.10292
362.0272 45.83022
362.5093 37.44345
362.9914 29.91824
363.4735 23.16101
363.9557 17.22435
364.4378 12.14531
364.9199 7.819382
365.4020 3.783905
365.8841 0.3048100
366.3662 3.527710
366.8484 5.411469
367.3305 6.612427
367.8126 7.713211
368.2947 8.906998
368.7768 10.10359
369.2589 11.16470
369.7411 12.05191
370.2232 12.89806
370.7053 14.13472
371.1874 14.99084
371.6695 14.90863
372.1516 13.99130
372.6338 12.83095
373.1159 11.90424
373.5980 11.20633
374.0801 10.59906
374.5622 10.43776
375.0443 9.896637
375.5265 8.540024
376.0086 6.691376
376.4907 4.883118
376.9728 3.405609
377.4549 2.014755
377.9370 0.1666720
378.4192 2.202988
378.9013 4.865143
379.3834 7.701996
379.8655 10.83672
380.3476 14.43814
380.8297 18.53580
381.3119 22.91029
381.7940 27.16730
382.2761 31.33011
382.7582 36.24721
383.2403 42.05539
383.7224 48.71300
384.2046 56.17426
384.6867 64.33864
385.1688 73.05081
385.6509 81.98439
386.1330 91.37321
386.6151 101.9473
387.0973 113.8840
387.5794 126.2722
388.0615 139.3116
388.5436 152.3327
389.0257 164.3783
389.5078 175.3019
389.9900 185.1457
390.4721 194.1109
390.9542 202.1460
391.4363 208.5381
391.9184 212.8809
392.4005 215.5999
392.8827 217.6393
393.3648 219.1761
393.8469 218.8493
394.3290 215.9434
394.8111 210.9035
395.2932 204.1855
395.7754 195.7071
396.2575 186.4817
396.7396 177.3472
397.2217 168.2048
397.7038 158.2442
398.1859 146.3191
398.6681 134.4285
399.1501 123.5724
399.6323 113.7921
400.1144 105.1054
400.5965 97.58311
401.0786 91.06507
401.5607 85.24083
402.0428 79.72030
402.5250 75.40504
403.0071 73.12055
403.4892 71.84001
403.9713 70.32040
404.4534 68.30856
404.9355 66.48540
405.4177 65.67842
405.8998 66.09638
406.3819 66.53114
406.8640 66.44817
407.3461 66.83479
407.8282 68.33071
408.3104 70.71230
408.7925 73.28392
409.2746 75.58645
409.7567 77.83188
410.2388 81.03714
410.7209 85.52589
411.2031 90.58759
411.6852 96.10439
412.1673 102.1881
412.6494 108.7992
413.1315 116.0155
413.6136 124.2063
414.0958 133.8102
414.5779 144.8918
415.0600 157.3886
415.5421 171.8791
416.0242 187.2525
416.5063 203.1487
416.9885 219.6587
417.4706 237.1091
417.9527 256.5029
418.4348 276.4273
418.9169 292.4683
419.3990 304.5598
419.8812 312.5100
420.3633 314.9672
420.8454 314.2209
421.3275 311.4580
421.8096 306.8809
422.2917 302.5298
422.7739 300.1856
423.2560 299.8437
423.7381 301.2496
424.2202 304.0373
424.7023 309.0379
425.1844 316.7857
425.6666 326.9952
426.1487 338.8165
426.6308 352.0622
427.1129 366.6771
427.5950 383.0107
428.0771 401.2905
428.5593 419.1321
429.0414 435.6899
429.5235 450.7161
430.0056 464.3356
430.4877 477.3671
430.9698 487.1985
431.4520 493.3961
431.9341 495.3134
432.4162 491.2344
432.8983 480.5866
433.3804 465.3836
433.8625 447.5280
434.3447 426.7794
434.8268 403.8629
435.3089 377.2915
435.7910 349.8514
436.2731 322.7141
436.7552 296.2296
437.2374 270.9692
437.7195 247.2229
438.2016 225.1183
438.6837 205.6157
439.1658 188.6887
439.6479 174.4633
440.1301 163.6417
440.6122 155.1912
441.0943 148.2931
441.5764 142.7790
442.0585 138.8799
442.5406 136.9596
443.0227 137.1328
443.5049 138.4293
443.9870 141.9006
444.4691 145.4209
444.9512 148.9880
445.4333 152.0231
445.9154 154.0111
446.3976 154.7869
446.8797 153.7170
447.3618 149.1088
447.8439 140.0798
448.3260 130.1240
448.8081 119.0875
449.2903 107.8283
449.7724 96.62299
450.2545 85.59812
450.7366 75.12665
451.2187 65.46654
451.7008 56.58813
452.1830 48.64931
452.6651 41.75549
453.1472 35.64037
453.6293 30.18937
454.1114 25.42086
454.5935 21.54827
455.0757 18.88840
455.5578 16.63796
456.0399 14.09605
456.5220 11.38159
457.0041 8.946014
457.4862 6.889145
457.9684 5.211815
458.4505 4.049393
458.9326 3.391365
459.4147 2.692955
459.8968 1.796150
460.3789 0.8693920
460.8611 7.5751998E-02
461.3432 0.5985640
461.8253 1.294174
462.3074 2.124451
462.7895 3.020744
463.2716 3.713058
463.7538 4.223145
464.2359 4.520363
464.7180 4.472717
465.2001 4.283340
465.6822 4.168419
466.1643 4.164421
466.6465 4.163605
467.1286 4.074554
467.6107 3.918076
468.0928 3.459068
468.5749 2.373009
469.0570 1.234261
469.5392 0.2086640
470.0213 0.7621150
470.5034 1.760628
470.9855 2.810326
471.4676 3.855904
471.9497 4.843544
472.4319 5.810234
472.9140 6.682846
473.3961 7.109520
473.8782 7.675049
474.3603 8.821182
474.8424 10.43750
475.3246 12.04543
475.8067 13.25156
476.2888 14.33973
476.7709 15.91371
477.2530 18.02851
477.7351 20.23054
478.2173 22.16743
478.6994 24.16870
479.1815 26.66463
479.6636 29.66087
480.1457 33.17442
480.6278 37.31557
481.1100 41.95624
481.5920 46.91328
482.0742 52.16008
482.5563 57.60570
483.0384 63.14819
483.5205 68.80869
484.0026 75.00887
484.4847 82.52301
484.9669 89.68854
485.4490 96.35085
485.9311 102.1254
486.4132 106.6715
486.8953 109.8688
487.3774 111.0800
487.8596 109.1645
488.3417 103.3228
488.8238 96.29841
489.3059 87.55777
489.7880 78.37670
490.2701 68.84277
490.7523 59.41756
491.2344 50.91316
491.7165 43.86501
492.1986 38.02087
492.6807 32.68755
493.1628 27.79404
493.6450 23.64656
494.1271 20.41694
494.6092 17.92429
495.0913 16.17406
495.5734 15.12951
496.0555 14.57240
496.5377 14.53062
497.0198 14.85560
497.5019 15.10284
497.9840 15.20536
498.4661 15.50456
498.9482 16.16874
499.4304 17.18372
499.9125 18.50930
500.3946 20.25559
500.8767 22.04620
501.3588 23.72594
501.8409 25.32693
502.3231 26.90414
502.8052 28.46330
503.2873 30.06015
503.7694 31.69794
504.2515 33.38961
504.7336 35.47508
505.2158 38.27524
505.6979 41.06128
506.1800 43.38985
506.6621 45.59602
507.1442 48.23944
507.6263 51.50847
508.1085 55.04366
508.5906 58.29378
509.0727 61.23776
509.5548 63.98032
510.0369 66.23046
510.5190 68.56165
511.0012 71.87273
511.4833 75.33805
511.9654 77.36865
512.4475 77.06245
512.9296 75.31541
513.4117 73.77880
513.8939 72.56731
514.3760 70.59457
514.8581 67.13748
515.3402 63.28899
515.8223 60.13470
516.3044 57.53010
516.7866 54.48373
517.2687 50.12159
517.7508 45.32880
518.2329 41.21655
518.7150 37.75380
519.1971 34.48328
519.6793 31.21204
520.1614 27.96091
520.6435 24.85879
521.1256 21.90527
521.6077 19.06698
522.0898 16.57265
522.5720 14.08069
523.0541 11.06392
523.5362 7.671600
524.0183 4.684189
524.5004 2.716339
524.9825 1.593399
525.4647 0.3526310
525.9468 1.221779
526.4289 2.502800
526.9110 3.556412
527.3931 4.244705
527.8752 4.269241
528.3574 3.743103
528.8395 3.256508
529.3216 3.427261
529.8037 4.111710
530.2858 4.373932
530.7679 4.116608
531.2501 3.661476
531.7322 3.238525
532.2143 2.635033
532.6964 1.595230
533.1785 6.7505002E-02
533.6606 1.787483
534.1428 4.129211
534.6249 6.679199
535.1070 8.730255
535.5891 10.14457
536.0712 11.72026
536.5533 14.13564
537.0355 17.24070
537.5176 19.98425
537.9997 21.74319
538.4818 23.94234
538.9639 27.15678
539.4460 30.96471
539.9282 34.87486
540.4103 38.76810
540.8924 42.77959
541.3745 46.97450
541.8566 51.33808
542.3387 56.42089
542.8209 63.09671
543.3029 69.43014
543.7850 74.90108
544.2672 79.88136
544.7493 84.94016
545.2314 90.19650
545.7135 94.91868
546.1956 98.19384
546.6777 100.1050
547.1599 101.5626
547.6420 102.8536
548.1241 103.1857
548.6062 101.8942
549.0883 99.33782
549.5704 95.81006
550.0526 91.02290
550.5347 86.01376
551.0168 81.30952
551.4989 76.85632
551.9810 72.40493
552.4631 67.89104
552.9453 63.81873
553.4274 60.66176
553.9095 58.41920
554.3916 56.72707
554.8737 55.74886
555.3558 55.03226
555.8380 54.01538
556.3201 53.38225
556.8022 54.18823
557.2843 56.60225
557.7664 59.61269
558.2485 62.03519
558.7307 63.81720
559.2128 66.14394
559.6949 69.37758
560.1770 72.62829
560.6591 75.74500
561.1412 78.64883
561.6234 81.42280
562.1055 84.13452
562.5876 86.08772
563.0697 86.69824
563.5518 86.06211
564.0339 84.34399
564.5161 81.42166
564.9982 78.07941
565.4803 74.73444
565.9624 71.42432
566.4445 68.24976
566.9266 64.86367
567.4088 62.10084
567.8909 60.33818
568.3730 59.31490
568.8551 58.63307
569.3372 58.25792
569.8193 58.52435
570.3015 59.78662
570.7836 62.01260
571.2657 64.49084
571.7478 67.45770
572.2299 70.49463
572.7120 73.67637
573.1942 76.79229
573.6763 79.63548
574.1584 82.17619
574.6405 84.52407
575.1226 86.87798
575.6047 89.13277
576.0869 90.77965
576.5690 91.67374
577.0511 92.43820
577.5332 93.63875
578.0153 94.73486
578.4974 94.69611
578.9796 93.13819
579.4617 91.95309
579.9438 92.01956
580.4259 92.84532
580.9080 93.93672
581.3901 95.21797
581.8723 96.64972
582.3544 98.18110
582.8365 99.90045
583.3186 102.0984
583.8007 104.5896
584.2828 107.8218
584.7650 111.7956
585.2471 116.4866
585.7292 122.1758
586.2113 128.6574
586.6934 135.3128
587.1755 141.7184
587.6577 147.9869
588.1398 154.7269
588.6219 162.2669
589.1040 168.3370
589.5861 172.3329
590.0682 174.6809
590.5504 176.0926
591.0325 176.4769
591.5146 175.0196
591.9967 171.3173
592.4788 165.8158
592.9609 158.6652
593.4431 150.0550
593.9252 140.1644
594.4073 129.0003
594.8894 117.4812
595.3715 106.8213
595.8536 97.12155
596.3358 87.79265
596.8179 78.50219
597.3000 69.99352
597.7821 62.35010
598.2642 55.59808
598.7463 49.79265
599.2285 44.91225
599.7106 40.73704
600.1927 37.02805
600.6748 33.79088
601.1569 31.13990
601.6390 29.22837
602.1212 27.54536
602.6033 25.77554
603.0854 24.06370
603.5675 22.69091
604.0496 21.70901
604.5317 21.06421
605.0139 20.78767
605.4960 20.79171
605.9781 21.00402
606.4602 21.39361
606.9423 21.79916
607.4244 22.05351
607.9066 22.28212
608.3887 23.07660
608.8708 25.13615
609.3529 26.76618
609.8350 27.67338
610.3171 28.33365
610.7993 29.00439
611.2814 29.73440
611.7635 30.48749
612.2456 31.18125
612.7277 31.98457
613.2098 33.48496
613.6920 35.80595
614.1741 37.40968
614.6562 37.70449
615.1383 37.44927
615.6204 37.33253
616.1025 37.32855
616.5847 37.28793
617.0668 37.29071
617.5489 37.13963
618.0310 36.64384
618.5131 35.91391
618.9952 35.18266
619.4774 34.51768
619.9595 33.81526
620.4416 32.98252
620.9237 32.03106
621.4058 30.71935
621.8879 28.75872
622.3701 26.77427
622.8522 24.95389
623.3343 23.14777
623.8164 21.22623
624.2985 19.16628
624.7806 16.97399
625.2628 14.56130
625.7448 12.04327
626.2269 9.731537
626.7090 7.631165
627.1912 5.712990
627.6733 3.967911
628.1554 2.381126
628.6375 0.9032060
629.1196 0.4943850
629.6017 1.692184
630.0839 2.714088
630.5660 3.501541
631.0481 3.950943
631.5302 4.142204
632.0123 4.279602
632.4944 4.456535
632.9766 4.544937
633.4587 4.258339
633.9408 3.473373
634.4229 2.972427
634.9050 3.214783
635.3871 3.142494
635.8693 2.149712
636.3514 0.6326980
636.8335 0.7863390
637.3156 1.909241
637.7977 3.144531
638.2798 4.899529
638.7620 6.918915
639.2441 8.673798
639.7262 10.11253
640.2083 11.71970
640.6904 13.85393
641.1725 16.33499
641.6547 18.57590
642.1368 20.13700
642.6189 22.10550
643.1010 25.34048
643.5831 28.21484
644.0652 29.55224
644.5474 29.66376
645.0295 29.52846
645.5116 29.64011
645.9937 29.82236
646.4758 29.92036
646.9579 29.92998
647.4401 29.30303
647.9222 27.83068
648.4043 25.98774
648.8864 24.14139
649.3685 22.20339
649.8506 19.92844
650.3328 17.00967
650.8149 14.20116
651.2970 11.74461
651.7791 9.596649
652.2612 7.864265
652.7433 6.462349
653.2255 4.952019
653.7076 2.966660
654.1897 0.7142110
654.6718 1.043755
655.1539 2.203369
655.6360 3.111671
656.1182 3.939598
656.6003 4.400482
657.0824 4.057449
657.5645 3.183044
658.0466 2.633255
658.5287 2.995720
659.0109 3.372696
659.4930 2.772629
659.9751 1.513420
660.4572 0.5058440
660.9393 4.6478000E-02
661.4214 0.5337750
661.9036 1.253807
662.3857 2.218643
662.8678 3.532166
663.3499 5.708092
663.8320 7.553200
664.3141 8.494278
664.7963 9.438019
665.2784 10.99870
665.7605 13.24345
666.2426 16.06709
666.7247 19.57839
667.2068 23.37191
667.6890 26.63210
668.1711 29.38509
668.6532 32.52260
669.1353 36.18542
669.6174 40.37276
670.0995 45.10211
670.5817 50.38560
671.0638 55.89102
671.5459 61.26711
672.0280 67.28320
672.5101 74.46468
672.9922 82.18168
673.4744 89.86207
673.9565 97.38322
674.4386 104.9223
674.9207 112.7411
675.4028 120.5492
675.8849 127.5051
676.3671 133.6328
676.8492 138.8504
677.3313 143.7162
677.8134 146.9655
678.2955 147.7328
678.7776 146.2155
679.2598 142.9762
679.7419 137.7438
680.2240 131.3341
680.7061 123.8855
681.1882 115.7077
681.6703 106.9810
682.1525 97.88924
682.6346 88.94151
683.1167 80.48305
683.5988 72.61306
684.0809 65.82270
684.5630 60.64201
685.0452 55.41231
685.5273 49.26881
686.0094 43.63377
686.4915 39.52115
686.9736 36.55377
687.4557 33.61105
687.9379 30.12402
688.4200 26.86272
688.9021 24.53153
689.3842 22.98093
689.8663 21.96272
690.3484 21.41073
690.8306 20.97691
691.3127 20.37746
691.7948 19.73933
692.2769 19.51064
692.7590 19.48482
693.2411 20.14521
693.7233 21.90427
694.2054 24.08330
694.6875 26.17241
695.1696 28.26884
695.6517 30.78249
696.1339 33.89613
696.6160 37.51054
697.0981 41.54671
697.5802 45.99684
698.0623 50.94176
698.5444 56.37257
699.0266 62.10967
699.5087 67.91624
699.9908 73.99294
700.4729 81.02435
700.9550 89.00789
701.4371 97.97347
701.9193 108.5285
702.4014 119.5017
702.8835 129.9027
703.3656 140.1825
703.8477 151.3778
704.3298 163.8077
704.8120 177.7038
705.2941 193.1457
705.7762 210.1202
706.2583 228.9005
706.7404 249.5633
707.2225 271.3320
707.7046 293.7401
708.1867 317.0968
708.6688 342.2514
709.1509 368.9123
709.6331 397.9860
710.1152 430.2381
710.5973 464.4531
711.0794 501.2485
711.5615 539.0240
712.0436 575.5775
712.5258 610.1589
713.0079 641.6954
713.4900 670.2304
713.9721 695.0806
714.4542 713.4227
714.9363 725.3444
715.4185 729.6580
715.9006 725.7119
716.3827 713.7405
716.8648 692.9558
717.3469 662.7612
717.8290 629.7173
718.3112 593.5288
718.7933 555.5277
719.2754 514.4916
719.7575 472.8935
720.2396 433.7314
720.7217 397.9326
721.2039 364.4583
721.6860 332.2506
722.1681 301.5042
722.6502 273.3273
723.1323 247.5800
723.6144 224.1249
724.0966 203.0357
724.5787 184.1779
725.0608 167.8756
725.5429 153.9788
726.0250 141.3027
726.5071 130.2070
726.9893 119.7318
727.4714 109.4257
727.9535 99.59270
728.4356 90.63338
728.9177 82.63647
729.3998 75.63760
729.8820 69.76443
730.3641 64.72769
730.8462 59.91283
731.3283 55.33463
731.8104 50.72599
732.2925 45.86276
732.7747 41.36468
733.2568 37.84076
733.7389 35.15144
734.2210 32.41177
734.7031 29.35979
735.1852 26.68703
735.6674 24.81326
736.1495 23.13238
736.6316 21.06866
737.1137 18.74249
737.5958 16.62138
738.0779 14.92404
738.5601 13.51627
739.0422 12.17623
739.5243 10.92072
740.0064 9.958786
740.4885 9.373482
740.9706 8.679832
741.4528 7.485245
741.9349 6.143555
742.4170 5.495941
742.8991 5.806732
743.3812 5.888268
743.8633 5.374283
744.3455 4.813690
744.8276 4.559341
745.3097 4.469307
745.7918 4.237885
746.2739 3.797142
746.7560 3.418564
747.2382 3.318748
747.7203 3.499855
748.2024 4.133522
748.6845 5.240379
749.1666 5.871040
749.6487 5.526985
750.1309 5.031288
750.6130 5.358421
751.0951 6.555832
751.5772 7.773872
752.0593 8.948448
752.5414 10.21778
753.0236 11.68227
753.5057 13.20713
753.9878 14.55304
754.4699 15.81420
754.9520 17.42799
755.4341 19.73254
755.9163 22.33203
756.3984 24.70596
756.8805 26.89642
757.3626 28.96842
757.8447 30.91585
758.3268 33.08339
758.8090 35.72527
759.2911 38.76664
759.7732 41.96201
760.2553 45.25611
760.7374 48.84489
761.2195 52.89426
761.7017 57.03144
762.1838 61.07148
762.6659 65.08237
763.1480 69.24137
763.6301 73.59321
764.1122 77.93945
764.5944 82.08219
765.0765 86.15179
765.5586 90.52916
766.0407 95.08924
766.5228 99.05360
767.0049 102.1602
767.4871 104.7188
767.9692 107.1546
768.4513 109.5051
768.9334 110.7488
769.4155 110.7765
769.8976 109.8950
770.3798 107.8486
770.8619 105.2116
771.3440 102.4285
771.8261 99.45908
772.3082 95.99204
772.7903 91.80078
773.2725 87.23181
773.7546 82.61057
774.2367 77.81078
774.7188 72.24889
775.2009 66.06824
775.6830 60.54366
776.1652 56.55618
776.6473 53.50950
777.1294 49.97160
777.6115 45.79865
778.0936 41.98948
778.5757 38.77708
779.0579 35.61881
779.5400 31.93194
780.0221 28.27134
780.5042 25.72988
780.9863 24.57657
781.4684 23.25700
781.9506 21.13719
782.4327 18.96197
782.9148 17.27005
783.3969 15.84098
783.8790 14.20467
784.3611 12.27529
784.8433 10.45952
785.3254 9.160240
785.8075 8.245506
786.2896 7.371399
786.7717 6.543297
787.2538 5.623322
787.7360 4.499245
788.2181 3.507828
788.7002 2.994110
789.1823 2.907356
789.6644 2.838867
790.1465 3.033905
790.6286 2.893250
791.1107 2.090813
791.5928 1.200623
792.0750 0.4627990
792.5571 4.6013001E-02
793.0392 0.1803890
793.5213 0.1607510
794.0034 0.4643550
794.4855 0.2327800
794.9677 0.3231740
795.4498 0.8716660
795.9319 1.378082
796.4140 1.778305
796.8961 2.052856
797.3782 2.159981
797.8604 2.003441
798.3425 1.564499
798.8246 1.327324
799.3067 1.362061
799.7888 1.472160
800.2709 1.818214
800.7531 2.057037
801.2352 1.825226
801.7173 1.220245
802.1994 0.7448810
802.6815 0.6080860
803.1636 0.5128330
803.6458 0.3321690
804.1279 9.3039997E-02
804.6100 0.2007290
805.0921 0.5246660
805.5742 0.7805710
806.0563 0.9036940
806.5385 1.084984
807.0206 1.633957
807.5027 2.535507
807.9848 3.674751
808.4669 5.164825
808.9490 6.249992
809.4312 6.368065
809.9133 6.214310
810.3954 6.858910
810.8775 8.448341
811.3596 9.921051
811.8417 11.52555
812.3239 12.69668
812.8060 13.15757
813.2881 13.20148
813.7702 13.03696
814.2523 12.71484
814.7344 12.23287
815.2166 11.49688
815.6987 10.80114
816.1808 10.69609
816.6629 10.80898
817.1450 10.18254
817.6271 8.788406
818.1093 7.418686
818.5914 6.517410
819.0735 5.946068
819.5556 5.521904
820.0377 5.344604
820.5198 4.610764
821.0020 2.900528
821.4841 1.410393
821.9662 0.6237640
822.4483 0.2603070
822.9304 0.1259460
823.4125 0.2008130
823.8947 0.1058200
824.3768 0.5228960
824.8589 0.9865720
825.3410 0.7940370
825.8231 0.4003300
826.3052 0.2973940
826.7874 0.5066150
827.2695 0.8278500
827.7516 1.179382
828.2337 1.457115
828.7158 1.523552
829.1979 1.391022
829.6801 1.004974
830.1622 0.3598180
830.6443 6.9430000E-03
831.1264 0.2329940
831.6085 0.7138600
832.0906 0.8185880
832.5728 0.4733430
833.0549 0.2945860
833.5370 0.4815440
834.0191 0.5486450
834.5012 0.3876270
834.9833 7.4180998E-02
835.4655 0.4287800
835.9476 1.052597
836.4297 1.521950
836.9118 1.825958
837.3939 1.846695
837.8760 1.119278
838.3582 0.3404240
838.8403 0.4672010
839.3224 1.325645
839.8045 2.088478
840.2866 2.365196
840.7687 2.416550
841.2509 2.550179
841.7330 2.761688
842.2151 3.078773
842.6972 3.517410
843.1793 3.725571
843.6614 3.474419
844.1436 3.231598
844.6257 3.565262
845.1078 4.460724
845.5899 5.282921
846.0720 5.982414
846.5541 6.672386
847.0363 7.636696
847.5184 8.337357
848.0005 8.187988
848.4826 7.561508
848.9647 7.314224
849.4468 7.708992
849.9290 8.283630
850.4111 8.987610
850.8932 9.591278
851.3753 9.886520
851.8574 9.890556
852.3395 9.584869
852.8217 9.007622
853.3038 8.474655
853.7859 8.280373
854.2680 8.391243
854.7501 8.784866
855.2322 9.468262
855.7144 10.09242
856.1965 10.60322
856.6786 11.02351
857.1607 11.39107
857.6428 11.64919
858.1249 11.57915
858.6071 10.79091
859.0892 10.56380
859.5713 11.34999
860.0534 12.17905
860.5355 12.86217
861.0176 13.30028
861.4998 13.31512
861.9819 12.92467
862.4640 12.56424
862.9461 12.42987
863.4282 12.34299
863.9103 12.05089
864.3925 11.80271
864.8746 12.07523
865.3567 12.78964
865.8388 13.33876
866.3209 13.35612
866.8030 13.22246
867.2852 13.64633
867.7673 14.44424
868.2494 14.62407
868.7315 14.13068
869.2136 13.58806
869.6957 13.22762
870.1779 13.07700
870.6600 13.17656
871.1421 13.51867
871.6242 13.70743
872.1063 13.82107
872.5884 13.67878
873.0705 12.94043
873.5526 12.20817
874.0347 11.86179
874.5168 11.82092
874.9990 11.87119
875.4811 12.01722
875.9632 12.13538
876.4453 12.38455
876.9274 12.39575
877.4095 11.55365
877.8917 10.40977
878.3738 9.975899
878.8559 10.42023
879.3380 10.96676
879.8201 11.00839
880.3022 10.81551
880.7844 10.90697
881.2665 11.17382
881.7486 11.09926
882.2307 10.58917
882.7128 10.06673
883.1949 9.831177
883.6771 9.809639
884.1592 9.794899
884.6413 9.744255
885.1234 9.861496
885.6055 10.21234
886.0876 10.58307
886.5698 11.05459
887.0519 11.39113
887.5340 11.17554
888.0161 10.48429
888.4982 10.24755
888.9803 10.70459
889.4625 11.20851
889.9446 11.57367
890.4267 12.10236
890.9088 13.07561
891.3909 14.29421
891.8730 15.40027
892.3552 16.31464
892.8373 17.20438
893.3194 18.15277
893.8015 19.16311
894.2836 20.30310
894.7657 21.46616
895.2479 22.30665
895.7300 22.80977
896.2121 23.50082
896.6942 24.83881
897.1763 26.59989
897.6584 28.35560
898.1406 30.06095
898.6227 31.49315
899.1048 32.62326
899.5869 33.52660
900.0690 34.18703
900.5511 34.80682
901.0333 35.71357
901.5154 36.92377
901.9975 37.88239
902.4796 38.45367
902.9617 39.06992
903.4438 39.98411
903.9260 40.77859
904.4081 41.18571
904.8902 41.25962
905.3723 41.10964
905.8544 40.67496
906.3365 40.22344
906.8187 39.88006
907.3008 39.47511
907.7829 39.08739
908.2650 38.48338
908.7471 37.26271
909.2292 35.44116
909.7114 33.52383
910.1935 31.85629
910.6756 30.15548
911.1577 28.04295
911.6398 25.71738
912.1219 23.49285
912.6041 21.43542
913.0862 19.57907
913.5683 17.94215
914.0504 16.46430
914.5325 15.12048
915.0146 13.86619
915.4968 12.35251
915.9789 10.56586
916.4610 8.861778
916.9431 7.307961
917.4252 5.893372
917.9073 4.599884
918.3895 3.429047
918.8716 2.377251
919.3537 1.415070
919.8358 0.6309890
920.3179 0.1099010
920.8000 0.3578410
921.2822 0.8442920
921.7643 1.326775
922.2464 1.790253
922.7285 2.232819
923.2106 2.610573
923.6927 3.135338
924.1749 3.301750
924.6570 2.655663
925.1391 1.875389
925.6212 1.391563
926.1033 1.223541
926.5854 1.426750
927.0676 2.034248
927.5497 2.371361
928.0318 1.720230
928.5139 0.8274230
928.9960 0.4908140
929.4781 0.4619900
929.9603 0.2520750
930.4424 0.2256160
930.9245 0.8445050
931.4066 1.542358
931.8887 2.230934
932.3708 2.826744
932.8530 3.290466
933.3351 3.354980
933.8172 3.037750
934.2993 2.924049
934.7814 3.254677
935.2635 3.574516
935.7457 3.332443
936.2278 2.677750
936.7099 2.575844
937.1920 3.243553
937.6741 3.458321
938.1563 2.822136
938.6384 2.306618
939.1205 2.512100
939.6026 3.109528
940.0847 3.506744
940.5668 3.643707
941.0490 3.932175
941.5311 4.443855
942.0132 5.004852
942.4953 5.480316
942.9774 6.087784
943.4595 6.994705
943.9417 8.162964
944.4238 9.479813
944.9059 10.95309
945.3880 12.47063
945.8701 13.91834
946.3522 15.48697
946.8344 17.26680
947.3165 19.24876
947.7986 21.42002
948.2807 23.76369
948.7628 26.29005
949.2449 29.07358
949.7271 31.86348
950.2092 34.16515
950.6913 36.48152
951.1734 39.65990
951.6555 43.60297
952.1376 47.77116
952.6198 51.99057
953.1019 56.56606
953.5840 61.97421
954.0661 67.76069
954.5482 72.47945
955.0303 76.44048
955.5124 81.91686
955.9945 89.25499
956.4766 96.61898
956.9587 103.0169
957.4409 109.1035
957.9230 115.6490
958.4051 122.7276
958.8872 132.0971
959.3693 144.4448
959.8514 156.2547
960.3336 166.5310
960.8157 176.6032
961.2978 187.2533
961.7799 198.4289
962.2620 210.0804
962.7441 222.6570
963.2263 234.2901
963.7084 245.2045
964.1905 254.7946
964.6726 263.2123
965.1547 270.0241
965.6368 275.2511
966.1190 278.6547
966.6011 279.1231
967.0832 275.6836
967.5653 270.9927
968.0474 264.8894
968.5295 258.4614
969.0117 252.5730
969.4938 246.6265
969.9759 239.5525
970.4580 231.4251
970.9401 223.7807
971.4222 217.0174
971.9044 211.3996
972.3865 206.9115
972.8686 203.7931
973.3507 202.5413
973.8328 202.8500
974.3149 203.9509
974.7971 205.6458
975.2792 208.5492
975.7613 213.3575
976.2434 219.3918
976.7255 226.0775
977.2076 233.1673
977.6898 240.4319
978.1719 247.7062
978.6540 254.4048
979.1361 260.2873
979.6182 265.1608
980.1003 269.0081
980.5825 271.6082
981.0646 272.1428
981.5467 270.6297
982.0288 267.1440
982.5109 261.7589
982.9930 254.9991
983.4752 247.1613
983.9573 238.3099
984.4394 228.3935
984.9215 217.3973
985.4036 206.6834
985.8857 196.3125
986.3679 186.2251
986.8500 176.1637
987.3321 166.8903
987.8142 159.0570
988.2963 152.5088
988.7784 146.8213
989.2606 142.3299
989.7427 137.4368
990.2248 131.4403
990.7069 126.4007
991.1890 123.1695
991.6711 120.8930
992.1533 118.9131
992.6354 117.1967
993.1175 115.5419
993.5996 113.2701
994.0817 112.2869
994.5638 113.6499
995.0460 115.0676
995.5281 115.1635
996.0102 115.2178
996.4923 116.8309
996.9744 119.8502
997.4565 122.5718
997.9387 124.2181
998.4208 126.3005
998.9029 129.3069
999.3850 132.7369
999.8671 136.5910
1000.349 140.4779
1000.831 143.8212
1001.313 146.5920
1001.796 149.2762
1002.278 152.0938
1002.760 154.8226
1003.242 157.7148
1003.724 160.1328
1004.206 161.6585
1004.688 162.1939
1005.170 161.3753
1005.653 159.2847
1006.135 157.4164
1006.617 157.6777
1007.099 157.2349
1007.581 153.1326
1008.063 146.8573
1008.545 140.1747
1009.027 133.3212
1009.509 126.1162
1009.992 118.5473
1010.474 110.8712
1010.956 103.4407
1011.438 95.97361
1011.920 87.89861
1012.402 79.51312
1012.884 71.21177
1013.366 63.23122
1013.849 56.36247
1014.331 50.90295
1014.813 45.97470
1015.295 40.49030
1015.777 34.86889
1016.259 30.26159
1016.741 26.48061
1017.223 22.62847
1017.705 18.63802
1018.188 15.28133
1018.670 12.98112
1019.152 11.09939
1019.634 8.718170
1020.116 6.008926
1020.598 3.665779
1021.080 1.707016
1021.562 0.5664060
1022.044 0.3640140
1022.527 2.1591000E-02
1023.009 1.167793
1023.491 2.407417
1023.973 2.303230
1024.455 0.9603040
1024.937 0.2905500
1025.419 0.4590680
1025.901 0.1770400
1026.384 2.085968
1026.866 4.128151
1027.348 5.661224
1027.830 6.746109
1028.312 7.407341
1028.794 7.615868
1029.276 8.319397
1029.758 9.787033
1030.240 10.80221
1030.723 11.07952
1031.205 11.01227
1031.687 10.87118
1032.169 10.52641
1032.651 9.644211
1033.133 8.116646
1033.615 6.986847
1034.097 6.451134
1034.579 5.880898
1035.062 5.149513
1035.544 4.368889
1036.026 3.615578
1036.508 2.866226
1036.990 2.011215
1037.472 0.9325330
1037.954 0.4244460
1038.436 0.9067230
1038.919 1.294533
1039.401 1.412384
1039.883 1.374832
1040.365 1.187027
1040.847 0.9153440
1041.329 0.6626740
1041.811 0.3778080
1042.293 0.3779910
1042.776 1.143044
1043.258 1.528008
1043.740 1.056221
1044.222 0.4087910
1044.704 0.1753920
1045.186 0.5565030
1045.668 0.3776470
1046.150 0.5042270
1046.632 1.071907
1047.115 0.9261860
1047.597 0.8568570
1048.079 0.9515300
1048.561 1.286530
1049.043 2.129799
1049.525 3.166222
1050.007 3.688408
1050.489 3.527176
1050.971 3.956886
1051.454 5.648315
1051.936 7.377464
1052.418 8.888809
1052.900 10.21070
1053.382 11.08057
1053.864 11.89573
1054.346 13.60882
1054.828 16.39677
1055.311 18.28247
1055.793 17.62078
1056.275 17.50080
1056.757 19.87373
1057.239 22.30304
1057.721 22.82775
1058.203 22.14883
1058.685 21.59878
1059.167 21.39588
1059.650 21.27204
1060.132 21.33813
1060.614 21.20543
1061.096 20.60359
1061.578 19.85085
1062.060 19.25245
1062.542 18.67892
1063.024 17.80732
1063.506 16.61201
1063.989 15.54608
1064.471 15.09206
1064.953 14.31116
1065.435 12.54935
1065.917 10.57117
1066.399 8.907753
1066.881 7.458282
1067.363 5.926971
1067.846 4.335670
1068.328 3.142365
1068.810 2.688347
1069.292 2.359009
1069.774 1.900215
1070.256 1.454414
1070.738 1.003784
1071.220 0.7002640
1071.703 0.6988750
1072.185 1.044456
1072.667 1.768936
1073.149 2.991470
1073.631 4.341537
1074.113 5.478035
1074.595 6.842529
1075.077 8.970238
1075.559 11.41666
1076.042 13.46668
1076.524 15.17734
1077.006 17.32784
1077.488 20.33298
1077.970 23.30130
1078.452 25.36008
1078.934 27.79228
1079.416 31.87617
1079.898 36.57479
1080.380 40.55328
1080.863 43.93105
1081.345 47.70988
1081.827 52.24814
1082.309 56.92489
1082.791 62.05576
1083.273 66.57872
1083.755 69.81670
1084.237 72.11317
1084.720 73.89368
1085.202 75.08678
1085.684 75.32339
1086.166 74.46359
1086.648 73.13230
1087.130 71.69531
1087.612 69.63889
1088.094 66.55602
1088.577 62.90306
1089.059 58.90044
1089.541 54.72453
1090.023 50.65206
1090.505 46.71137
1090.987 42.96796
1091.469 39.46823
1091.951 36.10124
1092.433 32.68745
1092.916 29.49529
1093.398 26.92820
1093.880 24.70378
1094.362 22.25323
1094.844 19.54035
1095.326 17.19583
1095.808 15.39200
1096.290 14.04110
1096.772 13.39027
1097.255 12.88313
1097.737 12.28462
1098.219 11.53979
1098.701 10.51844
1099.183 9.271393
1099.665 8.130394
1100.147 7.034660
1100.629 6.347816
1101.112 6.415112
1101.594 6.605053
1102.076 6.596306
1102.558 6.569546
1103.040 6.782494
1103.522 7.165710
1104.004 7.415398
1104.486 7.511162
1104.969 7.382767
1105.451 6.989964
1105.933 6.408112
1106.415 5.235847
1106.897 4.269821
1107.379 4.320034
1107.861 5.037228
1108.343 5.620613
1108.825 6.092480
1109.307 5.952259
1109.790 4.394173
1110.272 3.307285
1110.754 3.397793
1111.236 3.719463
1111.718 3.826035
1112.200 3.734344
1112.682 3.442543
1113.164 2.941036
1113.647 2.508038
1114.129 2.186470
1114.611 1.867611
1115.093 1.484020
1115.575 1.187946
1116.057 1.130936
1116.539 1.112122
1117.021 0.8530880
1117.504 0.4083790
1117.986 0.1967540
1118.468 0.4384800
1118.950 0.3740310
1119.432 0.1799810
1119.914 0.6898880
1120.396 1.020309
1120.878 1.204933
1121.360 1.269932
1121.843 1.216309
1122.325 1.021091
1122.807 0.6341970
1123.289 0.4330980
1123.771 0.4950940
1124.253 0.4623150
1124.735 0.2039570
1125.217 6.9350000E-03
1125.699 8.0540001E-02
1126.182 0.2622990
1126.664 0.2351760
1127.146 2.6020000E-02
1127.628 0.2302780
1128.110 0.9379430
1128.592 1.185619
1129.074 0.7762110
1129.556 0.4155010
1130.039 0.4369010
1130.521 0.5974580
1131.003 0.6291010
1131.485 0.5509990
1131.967 0.3555790
1132.449 7.3425002E-02
1132.931 0.3311160
1133.413 1.140007
1133.896 1.544758
1134.378 1.254612
1134.860 0.6659700
1135.342 5.4161001E-02
1135.824 0.5073620
1136.306 0.9321860
1136.788 1.187492
1137.270 1.044098
1137.752 0.5961530
1138.234 0.2188220
1138.717 2.1309000E-02
1139.199 0.2620770
1139.681 1.076172
1140.163 1.884029
1140.645 1.965393
1141.127 1.680008
1141.609 1.702549
1142.091 1.868420
1142.574 1.819954
1143.056 1.561230
1143.538 1.118923
1144.020 0.5786630
1144.502 0.5223350
1144.984 1.592632
1145.466 2.757008
1145.948 2.828564
1146.431 2.454819
1146.913 2.427998
1147.395 2.596397
1147.877 2.551968
1148.359 2.283978
1148.841 2.063957
1149.323 1.980942
1149.805 2.106655
1150.287 2.706661
1150.770 3.281368
1151.252 3.433544
1151.734 3.400734
1152.216 3.401810
1152.698 3.454266
1153.180 3.506279
1153.662 3.547432
1154.144 3.695557
1154.626 4.238617
1155.109 4.545753
1155.591 4.171139
1156.073 3.762379
1156.555 3.777672
1157.037 3.957951
1157.519 3.883411
1158.001 3.596657
1158.483 3.582214
1158.966 4.087013
1159.448 4.437420
1159.930 4.473473
1160.412 4.516293
1160.894 4.652641
1161.376 4.823048
1161.858 5.007515
1162.340 5.178886
1162.822 5.255852
1163.305 5.213551
1163.787 5.393841
1164.269 5.969471
1164.751 6.243134
1165.233 6.029881
1165.715 5.774090
1166.197 5.686497
1166.679 5.649281
1167.161 5.511414
1167.644 5.309322
1168.126 5.167065
1168.608 5.081791
1169.090 5.353470
1169.572 6.005272
1170.054 6.574837
1170.536 6.957794
1171.018 7.097157
1171.500 6.926189
1171.983 6.650948
1172.465 6.613636
1172.947 6.742943
1173.429 6.840595
1173.911 6.890858
1174.393 6.777634
1174.875 6.536713
1175.357 6.411308
1175.840 6.480328
1176.322 6.608799
1176.804 6.702740
1177.286 6.703224
1177.768 6.515865
1178.250 6.248562
1178.732 6.009151
1179.214 5.837418
1179.697 5.790005
1180.179 5.869396
1180.661 6.067989
1181.143 6.392673
1181.625 6.566677
1182.107 6.303577
1182.589 6.022030
1183.071 6.051273
1183.553 6.102066
1184.036 5.805584
1184.518 5.382408
1185.000 5.353588
1185.482 5.727249
1185.964 5.730709
1186.446 4.721455
1186.928 4.218815
1187.410 5.126030
1187.892 5.734642
1188.375 4.866535
1188.857 3.792343
1189.339 3.790295
1189.821 4.491413
1190.303 4.811291
1190.785 4.640327
1191.267 4.468975
1191.749 4.345749
1192.232 4.206329
1192.714 3.985863
1193.196 3.982815
1193.678 4.381031
1194.160 4.934929
1194.642 5.396168
1195.124 5.696690
1195.606 5.532032
1196.089 4.923267
1196.571 4.496655
1197.053 4.297062
1197.535 4.071354
1198.017 3.748199
1198.499 3.549072
1198.981 3.621464
1199.463 3.809586
1199.945 3.931087
1200.427 3.991619
1200.910 3.973003
1201.392 3.914577
1201.874 3.900776
1202.356 3.944683
1202.838 4.145344
1203.320 4.453350
1203.802 4.509270
1204.284 3.999542
1204.767 3.518070
1205.249 3.559887
1205.731 3.772205
1206.213 3.926437
1206.695 4.006229
1207.177 4.033295
1207.659 3.993179
1208.141 3.803928
1208.624 3.428932
1209.106 3.190727
1209.588 3.288345
1210.070 3.345490
1210.552 3.189938
1211.034 3.089214
1211.516 3.356014
1211.998 3.582489
1212.480 3.224670
1212.963 2.507137
1213.445 2.342415
1213.927 2.923065
1214.409 3.016655
1214.891 2.401379
1215.373 2.266140
1215.855 2.968044
1216.337 3.470978
1216.819 3.196156
1217.302 2.658154
1217.784 2.494713
1218.266 2.553154
1218.748 2.288563
1219.230 1.812481
1219.712 1.766083
1220.194 2.077404
1220.676 2.200928
1221.159 2.026356
1221.641 1.719803
1222.123 1.361111
1222.605 1.157261
1223.087 1.481106
1223.569 1.899883
1224.051 1.808903
1224.533 1.595745
1225.016 2.006035
1225.498 2.601078
1225.980 2.181160
1226.462 0.8210560
1226.944 0.2644120
1227.426 1.471706
1227.908 2.472225
1228.390 2.317547
1228.872 2.153412
1229.354 2.708763
1229.837 3.205952
1230.319 2.870174
1230.801 2.131153
1231.283 1.771717
1231.765 1.777256
1232.247 1.736557
1232.729 1.564457
1233.211 1.671890
1233.694 2.215611
1234.176 2.493156
1234.658 2.235477
1235.140 1.957729
1235.622 2.060883
1236.104 2.295650
1236.586 2.288601
1237.068 2.065651
1237.551 1.756039
1238.033 1.432465
1238.515 1.477680
1238.997 1.813286
1239.479 1.811142
1239.961 1.359871
1240.443 1.105316
1240.925 1.511936
1241.407 1.978630
1241.890 1.824894
1242.372 1.557583
1242.854 1.818623
1243.336 2.141663
1243.818 1.819927
1244.300 1.127731
1244.782 0.7443310
1245.264 0.7680090
1245.746 0.8762970
1246.229 1.045029
1246.711 1.173615
1247.193 1.169601
1247.675 1.223885
1248.157 1.507126
1248.639 1.734180
1249.121 1.633240
1249.603 1.398762
1250.085 1.413261
1250.568 1.645794
1251.050 1.540504
1251.532 1.019062
1252.014 0.8819890
1252.496 1.194260
1252.978 1.495983
1253.460 1.630611
1253.942 1.588024
1254.425 1.389896
1254.907 1.153385
1255.389 1.074654
1255.871 1.053371
1256.353 0.9768450
1256.835 0.9260290
1257.317 0.8852460
1257.799 0.8144680
1258.281 0.5064010
1258.764 1.1497000E-02
1259.246 0.2048420
1259.728 0.1197700
1260.210 0.5372960
1260.692 1.023594
1261.174 1.318283
1261.656 1.260269
1262.138 1.000271
1262.620 0.3945620
1263.103 0.1924480
1263.585 6.6970997E-02
1264.067 0.6507070
1264.549 0.9791560
1265.031 0.7885440
1265.513 0.5895770
1265.995 0.3636890
1266.477 0.2971080
1266.960 0.4537700
1267.442 0.6198430
1267.924 0.6853560
1268.406 0.6159860
1268.888 0.3121600
1269.370 4.3118000E-02
1269.852 2.8949999E-03
1270.334 0.2984240
1270.817 0.6217120
1271.299 0.8805470
1271.781 0.8393020
1272.263 0.5068890
1272.745 0.2914850
1273.227 0.2841760
1273.709 0.4133760
1274.191 0.7881660
1274.673 1.055038
1275.156 0.8786320
1275.638 0.6580700
1276.120 0.6469230
1276.602 0.7569200
1277.084 0.9361840
1277.566 1.111958
1278.048 1.138996
1278.530 0.9705580
1279.012 0.9429630
1279.495 1.119190
1279.977 1.180763
1280.459 1.074814
1280.941 0.9614490
1281.423 0.9075320
1281.905 0.7707060
1282.387 0.4135970
1282.869 3.2032002E-02
1283.352 1.9768000E-02
1283.834 0.1414450
1284.316 8.0971003E-02
1284.798 0.0000000E+00
