#Shining_header
#Data type:raman_database
#CAS:Not entered
#Material scientific name:Aphthitalite
#Manufacturer:Not entered
#Laser model:Not entered
#Spectrometer model:Not entered
#Testing unit:Not entered
#Test time:Not entered
#Other experimental details:Not entered
#Shining_data
151.8078 0.0000000E+00
152.2899 1.855469
152.7720 0.3486330
153.2542 0.6049800
153.7363 6.909424
154.2184 16.88989
154.7005 28.37061
155.1826 40.21606
155.6647 52.35522
156.1469 64.58936
156.6290 75.71460
157.1111 88.10254
157.5932 103.3015
158.0753 120.3274
158.5574 137.0320
159.0396 151.6389
159.5217 163.7285
160.0038 176.3958
160.4859 191.3450
160.9680 205.1536
161.4501 217.3406
161.9323 228.0459
162.4144 236.4788
162.8965 242.0554
163.3786 245.1099
163.8607 242.3577
164.3428 231.2034
164.8250 216.1284
165.3071 199.0278
165.7892 180.4380
166.2713 161.2612
166.7534 145.1840
167.2355 132.8568
167.7177 119.8971
168.1998 104.4198
168.6819 89.50757
169.1640 77.92139
169.6461 70.12732
170.1282 64.25281
170.6104 57.34277
171.0925 49.39282
171.5746 41.18823
172.0567 34.98218
172.5388 31.23523
173.0209 28.37097
173.5031 25.62793
173.9852 24.26758
174.4673 21.92908
174.9494 17.67102
175.4315 13.87817
175.9136 13.50354
176.3958 16.42920
176.8779 17.49585
177.3600 14.94629
177.8421 11.49768
178.3242 7.749512
178.8063 4.381104
179.2885 1.841797
179.7706 1.209106
180.2527 2.785767
180.7348 3.384766
181.2169 2.537476
181.6990 1.436646
182.1812 0.8289790
182.6633 0.7758790
183.1454 0.8171390
183.6275 0.5664060
184.1096 9.4237998E-02
184.5917 0.7343750
185.0738 1.926636
185.5560 2.958740
186.0381 2.624390
186.5202 0.5538330
187.0023 2.116943
187.4844 3.663574
187.9665 3.687012
188.4487 2.975708
188.9308 0.6224370
189.4129 1.840210
189.8950 2.925293
190.3771 2.072510
190.8592 0.2585450
191.3414 0.5441890
191.8235 9.2041001E-02
192.3056 0.9329830
192.7877 2.474854
193.2698 3.971436
193.7519 4.117554
194.2341 2.239258
194.7162 0.3640140
195.1983 0.7082520
195.6804 1.814209
196.1625 3.813843
196.6446 4.169678
197.1268 3.271240
197.6089 1.869873
198.0910 3.6377002E-02
198.5731 1.952271
199.0552 3.110107
199.5373 3.471924
200.0195 3.504761
200.5016 3.564087
200.9837 3.553101
201.4658 2.884766
201.9479 0.8530270
202.4300 1.320801
202.9122 2.514404
203.3943 2.733032
203.8764 1.974731
204.3585 0.2005620
204.8406 3.748657
205.3227 7.053833
205.8048 10.91626
206.2870 13.23047
206.7691 11.54712
207.2512 5.724609
207.7333 0.2534180
208.2154 1.563599
208.6975 2.762329
209.1797 5.815186
209.6618 6.615601
210.1439 6.573120
210.6260 7.181641
211.1081 8.714966
211.5902 10.43359
212.0724 11.02795
212.5545 9.470459
213.0366 10.02148
213.5187 14.89331
214.0008 20.39709
214.4829 24.35400
214.9651 26.32837
215.4472 27.31030
215.9293 28.82654
216.4114 31.81873
216.8935 33.23877
217.3756 30.02991
217.8578 27.58276
218.3399 31.22888
218.8220 41.39746
219.3041 52.75159
219.7862 56.80188
220.2683 48.07703
220.7505 42.24292
221.2326 39.75415
221.7147 39.47375
222.1968 40.96375
222.6789 43.96790
223.1610 47.87048
223.6432 51.92969
224.1253 57.34021
224.6074 59.95740
225.0895 57.92468
225.5716 54.17847
226.0537 50.63684
226.5358 47.83923
227.0180 46.72607
227.5001 49.28357
227.9822 57.66980
228.4643 62.64417
228.9464 60.11902
229.4285 55.49365
229.9107 55.38391
230.3928 61.40479
230.8749 68.43567
231.3570 69.14038
231.8391 62.79138
232.3212 58.54028
232.8034 59.73669
233.2855 63.05811
233.7676 64.00879
234.2497 61.52332
234.7318 58.41077
235.2139 57.55713
235.6961 58.69373
236.1782 61.27917
236.6603 67.71069
237.1424 74.75073
237.6245 76.52869
238.1066 71.03784
238.5888 64.90613
239.0709 65.73779
239.5530 71.36487
240.0351 75.05664
240.5172 73.40210
240.9993 68.54968
241.4815 64.26904
241.9636 60.48706
242.4457 58.00061
242.9278 58.08813
243.4099 59.77979
243.8920 61.27185
244.3742 61.94678
244.8563 61.98169
245.3384 61.62744
245.8205 60.72595
246.3026 59.66602
246.7847 58.83374
247.2668 57.87292
247.7490 56.35779
248.2311 53.99927
248.7132 51.22961
249.1953 48.87109
249.6774 47.06921
250.1595 45.10571
250.6417 42.57385
251.1238 39.72998
251.6059 36.91089
252.0880 34.24951
252.5701 31.98450
253.0522 30.44031
253.5344 29.63892
254.0165 29.16821
254.4986 29.55933
254.9807 30.13220
255.4628 29.91040
255.9449 28.36450
256.4271 26.13513
256.9092 25.02527
257.3913 26.16565
257.8734 26.22607
258.3555 23.25952
258.8376 19.71362
259.3198 18.04138
259.8019 19.21265
260.2840 21.88733
260.7661 23.48682
261.2482 23.83545
261.7303 23.54150
262.2125 22.19556
262.6946 20.66321
263.1767 19.56165
263.6588 19.11267
264.1409 19.33325
264.6230 20.44690
265.1052 23.67261
265.5873 25.16150
266.0694 22.85803
266.5515 20.42969
267.0336 20.52393
267.5157 23.64673
267.9979 28.28894
268.4800 32.64136
268.9621 38.31091
269.4442 39.76184
269.9263 33.75781
270.4084 26.75598
270.8906 23.13623
271.3727 23.38440
271.8548 24.92737
272.3369 24.56555
272.8190 21.38391
273.3011 19.37634
273.7833 19.50098
274.2654 19.79358
274.7475 19.05859
275.2296 17.31152
275.7117 15.35400
276.1938 13.91443
276.6760 12.94629
277.1581 13.15381
277.6402 15.56946
278.1223 17.82214
278.6044 18.77502
279.0865 18.58655
279.5686 17.97815
280.0508 17.39429
280.5329 16.81165
281.0150 17.68591
281.4971 22.35400
281.9792 25.81458
282.4613 25.21411
282.9435 21.81104
283.4256 18.66138
283.9077 17.71094
284.3898 18.76062
284.8719 20.22498
285.3540 23.64136
285.8362 25.74939
286.3183 24.68250
286.8004 21.76880
287.2825 19.48230
287.7646 19.16064
288.2467 20.14404
288.7289 20.08411
289.2110 18.09253
289.6931 16.26501
290.1752 15.05396
290.6573 14.17639
291.1394 13.18958
291.6216 11.90552
292.1037 10.62903
292.5858 10.04626
293.0679 10.93628
293.5500 11.04224
294.0321 9.238525
294.5143 6.942139
294.9964 6.044800
295.4785 7.037964
295.9606 8.373047
296.4427 7.607666
296.9248 3.368042
297.4070 1.363037
297.8891 4.209595
298.3712 7.924683
298.8533 8.485718
299.3354 5.449829
299.8175 1.884521
300.2997 0.9754640
300.7818 3.274536
301.2639 4.742676
301.7460 4.518799
302.2281 4.153198
302.7102 5.003540
303.1924 6.938110
303.6745 8.685547
304.1566 9.425049
304.6387 8.844360
305.1208 7.437256
305.6029 3.472656
306.0851 0.7066650
306.5672 1.689819
307.0493 5.676270
307.5314 10.23315
308.0135 14.10583
308.4956 17.17139
308.9778 19.21631
309.4599 19.39331
309.9420 19.65881
310.4241 21.89331
310.9062 24.51538
311.3883 23.88269
311.8705 18.10266
312.3526 10.07959
312.8347 6.652222
313.3168 9.526611
313.7989 12.02271
314.2810 12.58325
314.7632 12.16956
315.2453 11.89124
315.7274 11.96985
316.2095 12.39685
316.6916 13.41028
317.1737 15.31177
317.6559 16.54333
318.1380 16.91833
318.6201 16.59424
319.1022 15.18823
319.5843 12.77808
320.0664 11.00452
320.5485 11.73608
321.0306 15.23279
321.5128 17.05212
321.9949 15.67749
322.4770 13.96997
322.9591 13.91565
323.4412 15.29871
323.9233 16.65588
324.4055 17.11255
324.8876 16.69250
325.3697 15.72888
325.8518 13.11572
326.3339 11.20935
326.8160 10.89661
327.2982 11.93677
327.7803 14.01038
328.2624 17.17419
328.7445 20.78918
329.2266 23.12390
329.7087 23.65845
330.1909 24.08801
330.6730 25.01807
331.1551 25.90015
331.6372 25.68225
332.1193 24.03699
332.6014 22.29626
333.0836 22.64075
333.5657 26.47278
334.0478 28.04053
334.5299 24.46753
335.0120 20.33081
335.4941 20.01941
335.9763 23.74902
336.4584 27.87817
336.9405 28.87317
337.4226 26.35413
337.9047 25.14038
338.3868 26.23108
338.8690 27.50977
339.3511 28.01160
339.8332 27.77600
340.3153 27.23303
340.7974 26.67566
341.2795 26.02307
341.7617 24.76807
342.2438 21.82312
342.7259 19.67383
343.2080 19.18567
343.6901 19.75989
344.1722 20.72400
344.6544 21.82886
345.1365 22.72437
345.6186 22.63770
346.1007 20.08679
346.5828 18.84570
347.0649 20.37024
347.5471 22.38367
348.0292 22.86267
348.5113 21.45679
348.9934 19.07031
349.4755 16.59717
349.9576 13.54529
350.4398 12.67468
350.9219 16.82324
351.4040 20.24426
351.8861 18.90125
352.3682 13.90710
352.8503 9.429199
353.3325 8.803955
353.8146 11.68994
354.2967 12.64844
354.7788 9.449951
355.2609 6.842529
355.7430 6.417847
356.2252 7.055176
356.7073 6.880615
357.1894 4.981934
357.6715 2.328979
358.1536 1.421753
358.6357 4.017456
359.1179 5.796997
359.5999 7.529907
360.0821 7.897217
360.5642 4.585571
361.0463 2.233276
361.5284 8.860352
362.0105 10.32922
362.4926 4.832886
362.9748 1.085205
363.4569 0.8963620
363.9390 1.307617
364.4211 0.7735600
364.9032 4.475708
365.3853 7.798462
365.8675 9.277344
366.3496 9.046997
366.8317 8.257446
367.3138 6.696289
367.7959 4.784790
368.2780 1.987671
368.7602 0.8588870
369.2423 2.727295
369.7244 3.156006
370.2065 2.561279
370.6886 1.668945
371.1707 0.2437740
371.6529 0.7856450
372.1350 1.656372
372.6171 1.895752
373.0992 0.7015380
373.5813 1.813477
374.0634 4.211792
374.5456 4.458008
375.0277 2.364380
375.5098 2.236572
375.9919 5.912964
376.4740 9.751343
376.9561 11.96985
377.4383 13.04175
377.9204 14.18494
378.4025 16.33044
378.8846 18.92126
379.3667 20.13330
379.8488 19.16919
380.3310 18.89734
380.8131 21.07654
381.2952 24.25073
381.7773 27.05713
382.2594 29.15930
382.7415 30.81165
383.2237 32.14404
383.7058 33.16125
384.1879 34.30847
384.6700 35.71680
385.1521 37.28174
385.6342 38.57300
386.1164 39.67114
386.5985 41.70532
387.0806 46.24841
387.5627 52.07556
388.0448 56.41357
388.5269 59.05176
389.0091 60.10999
389.4912 58.01624
389.9733 54.40173
390.4554 53.06018
390.9375 56.26770
391.4196 60.63733
391.9018 63.81714
392.3839 65.73010
392.8660 65.16418
393.3481 60.19641
393.8302 53.76172
394.3123 52.14294
394.7945 57.22144
395.2766 60.57788
395.7587 56.91077
396.2408 49.87549
396.7229 45.86853
397.2050 46.40796
397.6872 48.75842
398.1693 50.62207
398.6514 52.02380
399.1335 50.42664
399.6156 41.92639
400.0977 33.41345
400.5798 30.83728
401.0620 33.14026
401.5441 34.50024
402.0262 31.04016
402.5083 23.99805
402.9904 19.73999
403.4725 20.41907
403.9547 20.75220
404.4368 19.34338
404.9189 17.20190
405.4010 15.52136
405.8831 14.69519
406.3652 14.52795
406.8474 14.82227
407.3295 15.94312
407.8116 16.44678
408.2937 15.76648
408.7758 15.05042
409.2579 14.69434
409.7401 14.85437
410.2222 15.92969
410.7043 18.49146
411.1864 22.10669
411.6685 23.00854
412.1506 18.45361
412.6328 14.41980
413.1149 11.65076
413.5970 9.898560
414.0791 9.098633
414.5612 9.170654
415.0433 9.451538
415.5255 8.803101
416.0076 6.821411
416.4897 5.342163
416.9718 4.956299
417.4539 4.683228
417.9360 4.017456
418.4182 3.022583
418.9003 1.940918
419.3824 0.6533200
419.8645 0.4371340
420.3466 0.2097170
420.8287 1.930542
421.3109 3.629272
421.7930 3.041382
422.2751 1.770142
422.7572 1.792236
423.2393 3.936401
423.7214 6.366699
424.2036 6.872437
424.6857 5.574707
425.1678 4.826050
425.6499 5.183472
426.1320 6.306641
426.6141 8.229248
427.0963 10.66431
427.5784 12.15967
428.0605 11.07739
428.5426 9.107422
429.0247 8.592896
429.5068 9.612183
429.9890 12.18274
430.4711 16.25452
430.9532 22.20898
431.4353 30.17493
431.9174 40.66821
432.3995 52.27686
432.8817 63.95667
433.3638 76.21887
433.8459 90.77234
434.3280 108.3323
434.8101 126.5895
435.2922 142.5730
435.7744 156.1257
436.2565 167.0840
436.7386 175.3552
437.2207 181.0800
437.7028 182.5289
438.1849 181.0078
438.6671 180.8523
439.1492 184.9617
439.6313 192.8716
440.1134 201.8256
440.5955 212.2228
441.0776 223.2502
441.5598 233.5239
442.0418 245.0337
442.5240 260.9889
443.0061 281.6302
443.4882 302.7968
443.9703 318.0944
444.4524 325.0713
444.9345 337.9763
445.4167 359.7886
445.8988 384.6919
446.3809 409.9647
446.8630 436.7875
447.3451 467.9392
447.8272 504.7015
448.3094 546.7938
448.7915 594.5042
449.2736 650.1316
449.7557 704.6713
450.2378 762.4600
450.7199 814.1980
451.2021 858.5869
451.6842 893.7192
452.1663 904.5106
452.6484 876.9148
453.1305 814.5084
453.6126 728.3696
454.0948 609.3849
454.5769 490.6165
455.0590 390.0470
455.5411 305.7776
456.0232 237.9603
456.5053 190.0027
456.9875 154.3898
457.4696 126.7990
457.9517 106.6802
458.4338 91.50439
458.9159 81.34851
459.3980 74.02893
459.8802 66.13806
460.3623 57.32043
460.8444 50.76208
461.3265 48.39331
461.8086 47.60706
462.2907 46.42493
462.7729 44.60913
463.2550 42.14722
463.7371 38.79700
464.2192 35.01147
464.7013 32.81104
465.1834 34.27148
465.6656 34.47229
466.1477 30.91248
466.6298 26.32410
467.1119 24.20972
467.5940 25.23328
468.0761 27.03845
468.5583 26.61511
469.0404 23.35571
469.5225 21.98975
470.0046 24.12952
470.4867 26.49646
470.9688 28.80432
471.4510 30.48083
471.9331 30.41028
472.4152 27.89490
472.8973 24.55676
473.3794 23.52722
473.8615 25.50696
474.3437 27.60681
474.8258 30.54834
475.3079 32.10071
475.7900 29.88684
476.2721 24.54150
476.7542 19.68689
477.2364 17.45374
477.7185 17.36743
478.2006 18.96082
478.6827 22.68347
479.1648 25.29443
479.6469 24.36292
480.1291 21.59180
480.6112 20.22046
481.0933 20.94580
481.5754 21.50378
482.0575 20.47278
482.5396 18.62024
483.0217 16.91980
483.5038 15.60339
483.9860 15.29529
484.4681 17.05176
484.9502 20.95728
485.4323 22.79639
485.9144 21.14661
486.3965 19.06824
486.8787 17.67981
487.3608 16.90393
487.8429 16.43018
488.3250 16.37891
488.8071 16.66150
489.2892 16.97058
489.7714 17.25916
490.2535 17.68457
490.7356 18.42810
491.2177 19.11499
491.6998 19.75012
492.1819 20.16614
492.6641 19.92712
493.1462 18.62842
493.6283 16.80798
494.1104 16.19177
494.5925 17.39661
495.0746 18.14111
495.5568 17.54651
496.0389 16.55017
496.5210 15.55408
497.0031 14.67810
497.4852 14.29028
497.9673 15.19568
498.4495 16.75635
498.9316 17.05725
499.4137 15.79736
499.8958 14.37732
500.3779 13.70984
500.8600 13.34534
501.3422 12.15112
501.8243 9.119995
502.3064 7.321899
502.7885 9.504150
503.2706 13.63623
503.7527 16.13770
504.2349 16.23230
504.7170 14.91479
505.1991 12.83362
505.6812 9.891602
506.1633 8.430542
506.6454 9.676392
507.1276 10.87183
507.6097 11.18115
508.0918 10.73267
508.5739 9.802856
509.0560 8.500488
509.5381 6.762085
510.0203 4.252686
510.5024 0.2104490
510.9845 1.984375
511.4666 0.6723630
511.9487 0.8576660
512.4308 1.013306
512.9130 0.4809570
513.3951 0.8883060
513.8772 3.249512
514.3593 6.379639
514.8414 7.980835
515.3235 7.823853
515.8057 7.963013
516.2878 9.691284
516.7699 10.96655
517.2520 9.683838
517.7341 6.195068
518.2162 3.131104
518.6984 1.498657
519.1805 0.9122310
519.6626 1.433105
520.1447 2.911377
520.6268 3.447876
521.1089 1.913818
521.5911 0.8544920
522.0732 3.111816
522.5553 5.279419
523.0374 5.973755
523.5195 3.591064
524.0016 0.3869630
524.4838 1.635864
524.9659 2.071167
525.4480 1.501465
525.9301 0.6578370
526.4122 0.3714600
526.8943 1.135620
527.3765 1.765259
527.8586 2.167480
528.3407 2.278198
528.8228 1.991211
529.3049 0.6915280
529.7870 1.346680
530.2692 2.593994
530.7513 1.302002
531.2334 1.987427
531.7155 3.741821
532.1976 3.523438
532.6797 2.688232
533.1619 1.487549
533.6440 0.1077880
534.1261 1.353516
534.6082 2.922363
535.0903 4.282837
535.5724 5.464111
536.0546 6.252197
536.5367 5.886108
537.0188 4.172852
537.5009 2.691528
537.9830 2.833862
538.4651 4.188721
538.9473 4.436279
539.4294 1.806885
539.9115 0.3769530
540.3936 2.723022
540.8757 6.203613
541.3578 7.362183
541.8400 5.639648
542.3221 3.093872
542.8042 1.866821
543.2863 1.991577
543.7684 1.365723
544.2505 2.366455
544.7326 3.910034
545.2147 0.2604980
545.6968 5.076782
546.1790 8.299927
546.6611 8.459961
547.1432 7.207886
547.6253 5.854858
548.1074 4.467529
548.5895 3.966309
549.0717 4.654907
549.5538 5.647217
550.0359 6.925415
550.5180 8.038574
551.0001 8.018799
551.4822 6.020020
551.9644 4.567017
552.4465 5.891235
552.9286 8.752075
553.4107 10.36816
553.8928 10.16895
554.3749 10.03809
554.8571 11.95984
555.3392 15.82178
555.8213 17.48767
556.3034 15.98267
556.7855 13.82678
557.2676 10.64465
557.7498 7.638550
558.2319 6.571777
558.7140 7.655762
559.1961 9.219116
559.6782 9.333252
560.1603 7.978638
560.6425 7.363892
561.1246 8.233276
561.6067 8.774780
562.0888 8.162354
562.5709 7.103027
563.0530 6.412720
563.5352 6.294556
564.0173 6.295532
564.4994 5.497437
564.9815 4.483643
565.4636 5.463989
565.9457 8.967285
566.4279 12.93774
566.9100 17.00623
567.3921 20.21313
567.8742 19.61121
568.3563 11.93152
568.8384 5.735107
569.3206 5.469116
569.8027 7.829834
570.2848 8.760132
570.7669 7.684570
571.2490 6.385986
571.7311 6.474976
572.2133 7.755615
572.6954 8.138428
573.1775 6.751709
573.6596 5.632202
574.1417 5.403931
574.6238 5.290771
575.1060 4.349976
575.5881 2.634399
576.0702 1.322632
576.5523 1.855469
577.0344 3.552612
577.5165 3.671387
577.9987 1.794189
578.4808 0.1894530
578.9629 2.8076001E-02
579.4450 0.4335940
579.9271 0.3928220
580.4092 6.1400998E-02
580.8914 1.177612
581.3735 4.528320
581.8556 7.351074
582.3377 5.499512
582.8198 0.2175290
583.3019 4.078979
583.7841 2.370239
584.2662 2.431030
584.7483 3.301758
585.2304 4.031494
585.7125 8.327148
586.1946 8.534180
586.6768 6.914795
587.1589 3.760620
587.6410 6.0913000E-02
588.1231 2.442871
588.6052 2.691284
589.0873 1.534302
589.5695 1.0498000E-02
590.0516 2.251221
590.5337 3.651367
591.0158 3.178101
591.4979 2.713989
591.9800 4.145752
592.4622 6.927490
592.9443 8.944946
593.4264 9.353394
593.9085 8.962402
594.3906 7.983398
594.8727 6.718628
595.3549 5.995117
595.8370 6.086060
596.3191 6.730957
596.8012 7.465820
597.2833 8.040405
597.7654 10.43518
598.2476 15.86328
598.7297 21.60828
599.2118 26.87561
599.6939 31.96582
600.1760 37.29272
600.6581 43.00439
601.1403 49.07959
601.6224 54.76733
602.1045 60.04089
602.5866 68.92676
603.0687 82.62329
603.5508 98.14673
604.0330 114.6012
604.5151 131.7378
604.9972 149.6384
605.4793 169.0394
605.9614 185.9340
606.4435 197.8508
606.9257 206.4087
607.4078 212.6631
607.8899 217.1898
608.3720 222.8243
608.8541 231.2413
609.3362 242.1735
609.8184 254.8607
610.3005 268.1898
610.7826 285.2604
611.2647 306.2454
611.7468 330.6383
612.2289 359.1694
612.7111 390.8390
613.1932 423.8646
613.6753 457.8147
614.1574 490.8779
614.6395 518.4792
615.1216 540.0842
615.6038 565.0342
616.0859 593.1794
616.5680 628.0530
617.0501 675.7089
617.5322 733.0239
618.0143 789.8126
618.4965 848.5005
618.9786 901.0693
619.4607 948.2598
619.9428 984.5325
620.4249 1002.106
620.9070 998.5935
621.3892 968.8872
621.8713 905.3601
622.3534 808.2229
622.8355 711.0214
623.3176 600.3491
623.7997 507.7745
624.2819 436.0249
624.7640 385.5247
625.2461 360.1877
625.7282 358.7094
626.2103 371.3153
626.6924 395.7085
627.1745 427.0292
627.6566 455.9255
628.1387 483.1172
628.6208 498.9916
629.1030 503.2405
629.5851 490.7334
630.0672 446.7999
630.5493 370.5757
631.0314 298.0668
631.5135 226.6793
631.9957 167.7013
632.4778 129.9197
632.9599 109.4475
633.4420 99.03979
633.9241 95.75146
634.4063 97.72119
634.8884 102.6949
635.3705 110.8589
635.8526 120.6476
636.3347 133.0450
636.8168 145.6665
637.2990 158.2906
637.7811 170.3613
638.2632 182.1292
638.7453 193.7716
639.2274 201.1083
639.7095 201.0834
640.1917 195.2913
640.6738 185.2971
641.1559 171.1180
641.6380 154.6509
642.1201 135.9629
642.6022 117.1135
643.0844 102.8685
643.5665 95.86816
644.0486 87.88867
644.5307 76.30237
645.0128 66.32434
645.4949 61.25110
645.9771 59.82288
646.4592 59.83044
646.9413 60.35559
647.4234 60.32751
647.9055 57.38147
648.3876 51.63379
648.8698 48.61621
649.3519 49.37610
649.8340 51.36584
650.3161 54.40076
650.7982 57.54163
651.2803 58.23157
651.7625 54.84363
652.2446 52.00488
652.7267 52.39722
653.2088 53.80359
653.6909 54.18677
654.1730 53.34009
654.6552 51.12061
655.1373 47.16797
655.6194 42.37939
656.1015 38.97876
656.5836 37.15259
657.0657 36.61926
657.5479 37.82361
658.0300 39.60779
658.5121 42.54810
658.9942 45.66577
659.4763 46.72046
659.9584 44.36560
660.4406 41.76611
660.9227 42.15601
661.4048 44.34961
661.8869 45.12366
662.3690 43.97253
662.8511 43.29602
663.3333 44.97644
663.8154 48.32800
664.2975 50.47791
664.7796 50.19116
665.2617 50.42664
665.7438 50.77734
666.2260 52.08801
666.7081 55.91956
667.1902 61.16980
667.6723 64.95447
668.1544 65.61084
668.6365 64.95923
669.1187 66.26221
669.6008 69.36792
670.0829 70.65491
670.5650 69.32349
671.0471 66.88550
671.5292 64.10229
672.0114 61.08301
672.4935 58.22876
672.9756 55.04114
673.4577 52.88928
673.9398 53.62708
674.4219 54.60974
674.9041 52.87085
675.3862 48.73999
675.8683 44.57568
676.3504 41.78406
676.8325 40.04309
677.3146 38.48279
677.7968 36.90308
678.2789 36.68884
678.7610 40.09155
679.2431 42.13879
679.7252 38.27832
680.2073 31.33789
680.6895 27.23364
681.1716 28.09229
681.6537 29.59326
682.1358 29.03308
682.6179 27.70825
683.1000 27.96387
683.5822 29.69519
684.0643 30.30884
684.5464 27.95813
685.0285 23.85583
685.5106 21.51404
685.9927 21.77063
686.4749 21.82874
686.9570 21.85718
687.4391 21.40918
687.9212 19.83862
688.4033 17.75623
688.8854 16.27051
689.3676 15.81116
689.8497 15.74829
690.3318 15.88342
690.8139 15.95215
691.2960 15.28540
691.7781 13.82153
692.2603 12.10400
692.7424 10.32397
693.2245 8.711914
693.7066 7.861450
694.1887 8.127197
694.6708 8.439209
695.1530 8.792236
695.6351 9.174194
696.1172 9.394287
696.5993 9.685181
697.0814 10.80188
697.5635 13.09570
698.0457 14.59888
698.5278 12.67749
699.0099 8.388184
699.4920 4.718872
699.9741 1.842041
700.4562 0.8695070
700.9384 2.901001
701.4205 6.575439
701.9026 9.229980
702.3847 11.26648
702.8668 10.96887
703.3489 4.849487
703.8311 3.1740000E-03
704.3132 1.739868
704.7953 6.466431
705.2774 7.922119
705.7595 4.281616
706.2416 0.2921140
706.7238 0.7036130
707.2059 1.839722
707.6880 1.503296
708.1701 2.287109
708.6522 5.142212
709.1343 5.017700
709.6164 3.305420
710.0985 1.954224
710.5806 0.9268800
711.0627 0.4716800
711.5449 1.561890
712.0270 2.195679
712.5091 0.4639890
712.9912 1.910400
713.4733 2.151123
713.9554 0.2000730
714.4376 2.858154
714.9197 3.565308
715.4018 2.811157
715.8839 2.620117
716.3660 3.088867
716.8481 3.438232
717.3303 3.689697
717.8124 3.342285
718.2945 1.153931
718.7766 2.674072
719.2587 5.046753
719.7408 4.289185
720.2230 3.423218
720.7051 3.706543
721.1872 4.807373
721.6693 6.197144
722.1514 7.750854
722.6335 9.555786
723.1157 11.47400
723.5978 13.50696
724.0799 15.76428
724.5620 18.13538
725.0441 20.75671
725.5262 24.21619
726.0084 27.24670
726.4905 28.36292
726.9726 27.86890
727.4547 27.38416
727.9368 26.40857
728.4189 26.46240
728.9011 28.99963
729.3832 32.11487
729.8653 33.44934
730.3474 33.57397
730.8295 35.15649
731.3116 39.77991
731.7938 45.57983
732.2759 49.26270
732.7580 50.78967
733.2401 52.35486
733.7222 54.08496
734.2043 55.99341
734.6865 58.37061
735.1686 60.80127
735.6507 62.48474
736.1328 63.45532
736.6149 63.56494
737.0970 63.11780
737.5792 61.47546
738.0613 57.29639
738.5434 51.78931
739.0255 47.38220
739.5076 44.83240
739.9897 42.70447
740.4719 39.41565
740.9540 35.04675
741.4361 29.57812
741.9182 22.40540
742.4003 17.41687
742.8824 16.67725
743.3646 18.09290
743.8467 19.30029
744.3288 20.32190
744.8109 20.68958
745.2930 20.51038
745.7751 19.50488
746.2573 16.92480
746.7394 13.82361
747.2215 11.15833
747.7036 9.253174
748.1857 8.332520
748.6678 8.709717
749.1500 9.983521
749.6321 11.64929
750.1142 13.70984
750.5963 14.17542
751.0784 11.99097
751.5605 10.12732
752.0427 11.28967
752.5248 14.85779
753.0069 17.34412
753.4890 18.63623
753.9711 19.12561
754.4532 18.34912
754.9354 17.23254
755.4175 16.19812
755.8996 15.40466
756.3817 14.89233
756.8638 14.64880
757.3459 15.10168
757.8281 17.30908
758.3102 20.67493
758.7923 22.98401
759.2744 24.10986
759.7565 24.00195
760.2386 22.30493
760.7208 19.97302
761.2029 18.66284
761.6850 18.66956
762.1671 18.45557
762.6492 18.31812
763.1313 17.63281
763.6135 15.41968
764.0956 12.98291
764.5777 11.93469
765.0598 12.48242
765.5419 13.24829
766.0240 13.02588
766.5062 12.52893
766.9883 13.34521
767.4704 15.15186
767.9525 16.25732
768.4346 16.25305
768.9167 15.04248
769.3989 12.19739
769.8810 8.156738
770.3631 5.721924
770.8452 5.179565
771.3273 5.579834
771.8094 8.326050
772.2916 10.28577
772.7737 9.176514
773.2558 6.425781
773.7379 4.876709
774.2200 5.401611
774.7021 6.630005
775.1843 9.396606
775.6664 11.36804
776.1485 7.496826
776.6306 0.5759280
777.1127 4.971802
777.5948 2.072144
778.0770 3.657471
778.5591 5.633667
779.0412 3.718018
779.5233 1.049683
780.0054 3.084595
780.4875 6.486938
780.9697 8.600342
781.4518 9.509888
781.9339 8.758911
782.4160 6.554077
782.8981 5.176880
783.3802 6.318970
783.8624 7.105835
784.3445 5.716919
784.8266 3.320068
785.3087 1.316528
785.7908 9.0209998E-02
786.2729 1.332031
786.7551 2.714111
787.2372 4.017944
787.7193 4.356689
788.2014 3.759033
788.6835 5.351440
789.1656 10.39783
789.6478 14.19006
790.1299 12.76550
790.6120 8.826538
791.0941 9.260864
791.5762 16.17773
792.0583 20.90674
792.5404 20.31580
793.0225 20.36975
793.5046 24.72498
793.9868 30.99609
794.4689 35.62146
794.9510 37.99792
795.4331 40.67468
795.9152 46.12146
796.3973 52.65955
796.8795 56.75867
797.3616 59.21204
797.8437 64.32971
798.3258 73.29846
798.8079 82.30762
799.2900 87.83691
799.7722 90.63257
800.2543 94.72729
800.7364 100.8805
801.2185 106.7892
801.7006 110.8569
802.1827 116.0870
802.6649 124.4635
803.1470 134.8143
803.6291 145.1216
804.1112 155.1273
804.5933 164.2114
805.0754 171.4429
805.5576 178.0148
806.0397 185.2029
806.5218 192.7206
807.0039 199.6973
807.4860 205.8207
807.9681 211.8430
808.4503 219.0881
808.9324 226.7847
809.4145 230.0532
809.8966 228.0503
810.3787 227.1689
810.8608 229.6779
811.3430 232.3704
811.8251 231.6715
812.3072 228.3645
812.7893 227.9219
813.2714 232.3380
813.7535 236.5636
814.2357 238.6279
814.7178 241.4321
815.1999 247.1573
815.6820 255.1222
816.1641 264.0079
816.6462 273.3616
817.1284 282.1691
817.6105 288.8073
818.0926 294.4554
818.5747 302.2604
819.0568 311.6324
819.5389 318.1373
820.0211 320.1232
820.5032 320.3801
820.9853 322.1307
821.4674 325.2034
821.9495 326.9585
822.4316 327.4622
822.9138 326.4905
823.3959 322.4174
823.8780 318.4130
824.3601 317.2720
824.8422 317.7786
825.3243 316.6758
825.8065 313.1100
826.2886 308.6857
826.7707 303.0431
827.2528 297.6063
827.7349 293.6210
828.2170 290.8898
828.6992 289.0845
829.1813 287.9923
829.6634 286.5853
830.1455 283.1840
830.6276 278.6643
831.1097 276.3171
831.5919 276.1118
832.0740 275.4714
832.5561 273.5208
833.0382 271.4891
833.5203 270.3208
834.0024 270.0757
834.4846 271.2144
834.9667 275.4330
835.4488 278.4211
835.9309 280.4583
836.4130 280.6648
836.8951 277.9313
837.3773 273.2966
837.8594 268.3284
838.3415 263.3973
838.8236 258.6464
839.3057 254.4955
839.7878 250.4427
840.2700 245.7145
840.7521 240.7245
841.2342 237.1403
841.7163 235.0554
842.1984 231.0409
842.6805 221.1678
843.1627 208.0399
843.6448 200.0726
844.1269 197.4510
844.6090 193.7335
845.0911 187.8336
845.5732 180.6306
846.0554 172.0389
846.5375 163.0804
847.0196 156.9482
847.5017 156.1270
847.9838 152.4789
848.4659 143.2090
848.9481 134.2217
849.4302 127.8510
849.9123 122.9590
850.3944 118.0350
850.8765 112.8752
851.3586 108.1105
851.8408 103.8217
852.3229 100.2490
852.8050 98.17749
853.2871 96.68799
853.7692 94.38672
854.2513 91.01465
854.7335 86.30554
855.2156 79.92969
855.6977 73.55994
856.1798 70.83850
856.6619 71.62024
857.1440 71.50305
857.6262 70.22009
858.1083 68.33545
858.5904 65.85474
859.0725 63.31555
859.5546 61.60950
860.0367 60.89355
860.5189 59.24097
861.0010 55.48254
861.4831 52.42639
861.9652 50.98352
862.4473 49.98083
862.9294 48.55359
863.4116 46.80676
863.8937 45.20227
864.3758 43.81140
864.8579 42.79175
865.3400 42.94055
865.8221 43.00281
866.3043 41.15808
866.7864 38.01697
867.2685 35.25610
867.7506 33.49573
868.2327 32.68713
868.7148 33.10938
869.1970 34.23486
869.6791 34.21375
870.1612 33.03796
870.6433 31.76648
871.1254 30.52930
871.6075 29.67041
872.0897 29.68005
872.5718 30.08887
873.0539 29.34021
873.5360 26.78381
874.0181 24.55969
874.5002 22.40906
874.9823 20.93372
875.4644 21.37964
875.9465 21.98596
876.4286 20.22363
876.9108 16.09180
877.3929 13.03809
877.8750 12.71204
878.3571 13.22314
878.8392 13.49268
879.3214 14.04858
879.8035 16.57495
880.2856 20.08557
880.7677 20.88379
881.2498 16.94324
881.7319 11.67102
882.2141 9.206421
882.6962 8.828125
883.1783 8.716187
883.6604 8.711548
884.1425 7.820190
884.6246 5.570190
885.1068 3.663696
885.5889 4.363647
886.0710 7.102173
886.5531 7.248047
887.0352 3.709290
887.5173 1.345093
887.9995 0.7673340
888.4816 1.605164
888.9637 4.403259
889.4458 8.043457
889.9279 10.42450
890.4100 11.45032
890.8922 11.37836
891.3743 9.280701
891.8564 7.126953
892.3385 5.109070
892.8206 3.953186
893.3027 4.866699
893.7849 7.573059
894.2670 10.47284
894.7491 13.30359
895.2312 14.59729
895.7133 11.43524
896.1954 6.642944
896.6776 5.508423
897.1597 7.651001
897.6418 9.377502
898.1239 9.094360
898.6060 7.802979
899.0881 6.517395
899.5703 5.333252
900.0524 4.822571
900.5345 5.020142
901.0166 5.330750
901.4987 5.725708
901.9808 5.716675
902.4630 4.738708
902.9451 3.183716
903.4272 2.535645
903.9093 1.307495
904.3914 0.6857300
904.8735 0.5142210
905.3557 3.645935
905.8378 4.166687
906.3199 2.966736
906.8020 0.1986080
907.2841 3.868652
907.7662 6.230286
908.2484 4.428955
908.7305 3.008240
909.2126 4.485229
909.6947 6.594727
910.1768 6.895203
910.6589 6.035767
911.1411 6.063049
911.6232 7.743408
912.1053 10.34406
912.5874 13.52112
913.0695 17.05524
913.5516 21.07202
914.0338 25.10864
914.5159 27.94598
914.9980 29.26929
915.4801 29.16406
915.9622 27.55774
916.4443 25.00305
916.9265 22.57318
917.4086 20.26801
917.8907 19.25250
918.3728 20.08173
918.8549 19.08765
919.3370 13.85638
919.8192 7.637756
920.3013 5.042725
920.7834 6.156372
921.2655 6.641724
921.7476 6.516785
922.2297 5.731567
922.7119 3.242920
923.1940 1.125244
923.6761 1.008850
924.1582 2.010803
924.6403 2.056824
925.1224 0.4317020
925.6046 0.2130130
926.0867 3.445129
926.5688 6.815979
927.0509 8.749695
927.5330 9.728027
928.0151 10.01184
928.4973 9.947021
928.9794 10.47345
929.4615 12.19196
929.9436 14.22784
930.4257 15.80731
930.9078 17.24426
931.3900 19.19965
931.8721 21.44763
932.3542 23.08807
932.8363 23.85205
933.3184 24.44037
933.8005 25.77325
934.2827 27.19263
934.7648 26.82135
935.2469 24.79663
935.7290 21.73029
936.2111 17.59052
936.6932 15.99579
937.1754 19.65405
937.6575 25.12543
938.1396 25.77631
938.6217 21.07343
939.1038 18.29535
939.5859 18.04266
940.0681 18.22833
940.5502 19.42297
941.0323 19.33466
941.5144 15.17590
941.9965 8.104614
942.4786 2.900452
942.9608 0.9524540
943.4429 2.018677
943.9250 3.390137
944.4071 7.333984
944.8892 5.177979
945.3713 0.8001100
945.8535 1.263733
946.3356 0.8926390
946.8177 0.9451290
947.2998 2.803101
947.7819 4.565186
948.2640 5.382935
948.7462 5.623596
949.2283 5.431763
949.7104 4.988708
950.1925 4.426880
950.6746 3.835022
951.1567 3.717163
951.6389 5.337585
952.1210 6.877441
952.6031 5.748596
953.0852 2.816223
953.5673 0.5955200
954.0494 3.939026
954.5316 5.928833
955.0137 5.851196
955.4958 4.694031
955.9779 3.429382
956.4600 2.286438
956.9421 2.494934
957.4242 4.030090
957.9063 6.608093
958.3884 10.36969
958.8705 12.54883
959.3527 10.49139
959.8348 6.050049
960.3169 4.852661
960.7990 7.558655
961.2811 10.05426
961.7632 12.55670
962.2454 13.93378
962.7275 13.06451
963.2096 11.82861
963.6917 12.62384
964.1738 15.29346
964.6559 17.35162
965.1381 17.06329
965.6202 18.87622
966.1023 24.52606
966.5844 30.42993
967.0665 35.43604
967.5486 39.91254
968.0308 43.66309
968.5129 46.60632
968.9950 51.28949
969.4771 59.56104
969.9592 68.23199
970.4413 76.00323
970.9235 83.85364
971.4056 91.39966
971.8877 99.96350
972.3698 112.3240
972.8519 129.2074
973.3340 147.0446
973.8162 163.0515
974.2983 179.9771
974.7804 198.0775
975.2625 219.5576
975.7446 245.6554
976.2267 278.0081
976.7089 319.5594
977.1910 371.3765
977.6731 436.6173
978.1552 520.9359
978.6373 619.4335
979.1194 729.1895
979.6016 846.2691
980.0837 959.9947
980.5658 1067.204
981.0479 1160.731
981.5300 1234.686
982.0121 1298.518
982.4943 1364.985
982.9764 1434.585
983.4585 1507.611
983.9406 1584.471
984.4227 1683.060
984.9048 1809.266
985.3870 1951.912
985.8691 2100.908
986.3512 2257.981
986.8333 2429.167
987.3154 2613.763
987.7975 2816.731
988.2797 3035.635
988.7618 3284.826
989.2439 3569.110
989.7260 3889.225
990.2081 4253.906
990.6902 4656.181
991.1724 5051.557
991.6545 5505.803
992.1366 5804.692
992.6187 5974.406
993.1008 5927.337
993.5829 5573.421
994.0651 5015.884
994.5472 4346.052
995.0293 3561.248
995.5114 2873.271
995.9935 2277.557
996.4756 1784.309
996.9578 1419.728
997.4399 1134.616
997.9220 919.9203
998.4041 758.7061
998.8862 634.7048
999.3683 546.7875
999.8505 473.2653
1000.333 412.7184
1000.815 361.1326
1001.297 319.5564
1001.779 285.1052
1002.261 257.2841
1002.743 234.0409
1003.225 211.9402
1003.707 190.1002
1004.190 171.0543
1004.672 156.5345
1005.154 144.4972
1005.636 134.6154
1006.118 125.7157
1006.600 115.9916
1007.082 105.9219
1007.564 97.27240
1008.046 90.65405
1008.529 85.21082
1009.011 80.69989
1009.493 76.50177
1009.975 72.30103
1010.457 68.05762
1010.939 63.33752
1011.421 58.31616
1011.903 53.49609
1012.385 49.14655
1012.868 45.60474
1013.350 43.83246
1013.832 42.80389
1014.314 40.54474
1014.796 37.37506
1015.278 34.16174
1015.760 31.11963
1016.242 28.53192
1016.725 26.61035
1017.207 24.56580
1017.689 20.86853
1018.171 16.13458
1018.653 12.68512
1019.135 10.40485
1019.617 8.225220
1020.099 5.916809
1020.581 4.091675
1021.064 2.364868
1021.546 2.519470
1022.028 0.7474370
1022.510 1.948059
1022.992 3.650696
1023.474 6.724121
1023.956 6.839417
1024.438 9.994507
1024.921 11.81061
1025.403 8.639465
1025.885 2.910522
1026.367 0.5952760
1026.849 1.994629
1027.331 2.034790
1027.813 0.5746460
1028.295 1.514526
1028.777 4.133911
1029.260 6.916931
1029.742 9.690430
1030.224 12.22778
1030.706 13.71783
1031.188 13.85406
1031.670 14.43335
1032.152 14.92438
1032.634 17.74969
1033.116 25.21503
1033.599 32.01733
1034.081 33.06702
1034.563 30.45544
1035.045 30.67773
1035.527 34.11816
1036.009 39.30493
1036.491 48.05530
1036.973 55.01697
1037.456 57.73962
1037.938 59.36621
1038.420 62.67169
1038.902 66.93250
1039.384 69.74951
1039.866 71.02979
1040.348 71.08862
1040.830 69.70563
1041.313 67.43005
1041.795 64.42670
1042.277 60.54895
1042.759 54.89648
1043.241 48.31061
1043.723 43.73608
1044.205 42.49500
1044.687 39.58228
1045.169 32.69202
1045.651 26.85699
1046.134 24.53473
1046.616 22.88934
1047.098 19.03381
1047.580 14.02441
1048.062 11.35382
1048.544 12.36792
1049.026 12.03241
1049.508 7.457031
1049.991 4.345398
1050.473 5.456848
1050.955 8.030823
1051.437 10.77991
1051.919 12.91901
1052.401 12.50732
1052.883 8.468628
1053.365 5.587341
1053.848 5.390869
1054.330 5.864258
1054.812 7.522827
1055.294 8.411377
1055.776 5.775635
1056.258 1.249878
1056.740 0.9266970
1057.222 0.2806400
1057.704 1.866455
1058.187 2.937927
1058.669 4.266602
1059.151 6.700317
1059.633 9.055115
1060.115 9.898865
1060.597 9.936951
1061.079 10.88300
1061.561 13.12994
1062.043 15.69336
1062.526 19.70105
1063.008 22.10388
1063.490 18.91473
1063.972 15.87811
1064.454 18.83868
1064.936 25.68115
1065.418 31.61322
1065.900 35.66602
1066.383 38.61371
1066.865 38.81110
1067.347 40.48981
1067.829 45.95270
1068.311 53.43042
1068.793 62.49860
1069.275 71.94586
1069.757 79.63086
1070.240 85.24567
1070.722 91.58716
1071.204 99.65558
1071.686 108.9145
1072.168 120.1990
1072.650 131.5638
1073.132 141.3386
1073.614 150.1635
1074.096 159.0304
1074.578 168.2474
1075.061 178.6608
1075.543 191.1117
1076.025 204.0377
1076.507 217.2490
1076.989 230.0801
1077.471 241.7162
1077.953 252.8873
1078.435 264.4980
1078.918 276.7845
1079.400 289.9260
1079.882 304.6400
1080.364 318.7891
1080.846 332.3949
1081.328 343.9265
1081.810 353.8969
1082.292 360.3817
1082.774 362.0847
1083.257 358.6059
1083.739 348.2499
1084.221 328.7451
1084.703 306.2042
1085.185 283.0090
1085.667 258.5791
1086.149 229.7576
1086.631 201.3290
1087.114 178.9708
1087.596 162.2028
1088.078 147.2567
1088.560 133.3684
1089.042 119.6272
1089.524 104.0936
1090.006 90.24762
1090.488 80.73352
1090.970 73.38666
1091.453 66.04877
1091.935 58.96320
1092.417 53.30450
1092.899 49.22986
1093.381 47.45911
1093.863 51.43536
1094.345 53.70734
1094.827 48.67303
1095.309 42.44897
1095.792 40.33264
1096.274 41.03516
1096.756 41.08954
1097.238 40.04773
1097.720 40.61523
1098.202 45.16608
1098.684 49.10754
1099.166 49.80231
1099.649 50.56989
1100.131 53.78998
1100.613 58.52020
1101.095 63.19580
1101.577 67.47034
1102.059 71.79272
1102.541 76.26080
1103.023 81.76416
1103.505 88.55206
1103.988 95.39917
1104.470 102.4671
1104.952 109.4752
1105.434 115.2660
1105.916 120.4521
1106.398 128.1360
1106.880 139.6398
1107.362 151.1916
1107.844 162.8005
1108.327 173.7858
1108.809 183.4291
1109.291 192.7775
1109.773 202.7333
1110.255 213.1838
1110.737 224.0068
1111.219 236.1417
1111.701 245.2474
1112.184 249.5253
1112.666 252.1893
1113.148 255.4554
1113.630 255.9624
1114.112 250.3392
1114.594 240.8658
1115.076 231.8170
1115.558 223.4227
1116.041 213.3185
1116.523 201.0719
1117.005 187.8068
1117.487 172.1525
1117.969 157.6090
1118.451 146.2540
1118.933 136.4738
1119.415 125.9761
1119.897 117.3441
1120.380 106.3167
1120.862 101.0489
1121.344 94.91803
1121.826 87.28662
1122.308 79.71533
1122.790 72.37946
1123.272 65.93536
1123.754 61.38861
1124.236 57.99628
1124.719 52.94940
1125.201 49.27496
1125.683 46.09106
1126.165 40.88605
1126.647 39.20166
1127.129 34.09558
1127.611 28.53076
1128.093 24.35077
1128.576 21.46802
1129.058 19.94141
1129.540 19.68719
1130.022 18.47705
1130.504 16.20734
1130.986 14.25177
1131.468 12.81238
1131.950 11.66223
1132.432 10.62714
1132.915 10.41693
1133.397 12.34888
1133.879 10.49506
1134.361 13.76465
1134.843 8.577515
1135.325 5.300842
1135.807 4.299622
1136.289 4.192688
1136.771 4.521484
1137.254 5.155273
1137.736 6.063538
1138.218 6.872681
1138.700 6.581177
1139.182 5.692139
1139.664 5.802124
1140.146 6.886230
1140.628 9.256348
1141.111 12.51953
1141.593 13.72089
1142.075 11.26477
1142.557 8.445007
1143.039 9.555603
1143.521 8.802612
1144.003 12.31238
1144.485 11.11127
1144.968 12.10486
1145.450 14.61218
1145.932 15.13483
1146.414 12.73523
1146.896 9.948853
1147.378 8.415100
1147.860 7.501892
1148.342 6.578979
1148.824 5.955322
1149.307 5.990051
1149.789 6.603455
1150.271 8.113037
1150.753 10.08862
1151.235 10.71362
1151.717 8.985718
1152.199 7.120239
1152.681 6.918274
1153.163 6.382385
1153.646 3.804626
1154.128 0.5316160
1154.610 2.421387
1155.092 4.742432
1155.574 5.971130
1156.056 6.002380
1156.538 6.014648
1157.020 6.506226
1157.503 6.800293
1157.985 7.251099
1158.467 6.856018
1158.949 3.476135
1159.431 9.9303998E-02
1159.913 0.8618160
1160.395 5.640137
1160.877 6.859375
1161.359 1.060364
1161.842 2.114014
1162.324 0.9870610
1162.806 0.3986210
1163.288 1.611450
1163.770 1.873657
1164.252 0.1129150
1164.734 2.642578
1165.216 3.993591
1165.698 3.770569
1166.181 4.654419
1166.663 7.357300
1167.145 8.507507
1167.627 7.489441
1168.109 5.150879
1168.591 1.267334
1169.073 1.516418
1169.555 0.2603760
1170.037 5.083435
1170.520 7.042297
1171.002 6.227722
1171.484 6.637573
1171.966 8.417542
1172.448 9.986633
1172.930 10.94098
1173.412 12.64349
1173.894 16.08838
1174.377 20.00256
1174.859 22.20453
1175.341 23.52960
1175.823 26.06409
1176.305 29.75745
1176.787 34.94281
1177.269 41.21436
1177.751 46.53619
1178.234 50.35083
1178.716 54.71045
1179.198 61.12280
1179.680 68.94885
1180.162 78.51794
1180.644 88.26270
1181.126 96.26770
1181.608 102.9527
1182.090 108.8481
1182.573 114.2829
1183.055 120.0013
1183.537 126.3767
1184.019 132.1285
1184.501 136.2799
1184.983 139.9677
1185.465 144.7186
1185.947 148.4288
1186.429 149.1888
1186.912 147.6365
1187.394 145.0817
1187.876 141.6683
1188.358 136.9897
1188.840 130.5854
1189.322 123.5375
1189.804 115.0920
1190.286 107.1974
1190.769 101.8961
1191.251 95.93658
1191.733 85.57373
1192.215 73.07037
1192.697 64.34607
1193.179 59.89221
1193.661 55.23328
1194.143 50.11212
1194.625 46.00397
1195.108 43.49420
1195.590 40.27692
1196.072 34.91071
1196.554 29.88336
1197.036 28.15216
1197.518 28.85663
1198.000 29.43121
1198.482 29.94696
1198.964 30.89233
1199.447 32.32416
1199.929 34.98828
1200.411 38.84674
1200.893 41.64844
1201.375 42.00616
1201.857 42.56635
1202.339 47.16199
1202.821 53.18280
1203.304 57.01080
1203.786 58.79913
1204.268 58.44128
1204.750 56.39050
1205.232 53.59235
1205.714 50.29395
1206.196 46.05688
1206.678 40.03748
1207.161 35.15558
1207.643 34.04858
1208.125 33.79523
1208.607 32.30341
1209.089 30.66901
1209.571 29.41339
1210.053 29.33832
1210.535 32.28638
1211.017 38.59033
1211.500 43.18396
1211.982 44.08386
1212.464 45.19928
1212.946 47.09033
1213.428 48.81567
1213.910 50.06049
1214.392 51.26556
1214.874 52.75146
1215.356 54.48291
1215.839 56.25562
1216.321 58.93475
1216.803 61.16943
1217.285 65.90002
1217.767 70.62524
1218.249 74.99969
1218.731 78.08679
1219.213 79.69452
1219.696 80.70117
1220.178 82.05499
1220.660 83.78088
1221.142 86.28674
1221.624 89.28174
1222.106 91.51007
1222.588 93.18091
1223.070 95.28168
1223.552 97.94189
1224.035 100.7041
1224.517 103.3710
1224.999 105.7469
1225.481 108.3761
1225.963 109.8011
1226.445 107.2913
1226.927 103.9517
1227.409 103.0765
1227.891 104.3068
1228.374 107.5519
1228.856 111.8612
1229.338 113.5521
1229.820 110.4601
1230.302 108.3022
1230.784 110.1391
1231.266 110.6253
1231.748 107.1312
1232.231 102.8528
1232.713 99.48053
1233.195 96.79559
1233.677 94.80054
1234.159 93.29590
1234.641 90.15216
1235.123 87.81793
1235.605 85.63373
1236.088 82.00995
1236.570 81.51160
1237.052 78.71539
1237.534 77.67480
1238.016 81.32501
1238.498 85.39459
1238.980 83.47443
1239.462 77.78052
1239.944 73.89923
1240.427 71.35901
1240.909 68.97003
1241.391 66.52228
1241.873 63.41193
1242.355 59.83386
1242.837 57.56696
1243.319 57.63562
1243.801 58.54742
1244.283 60.04950
1244.766 60.93481
1245.248 59.64850
1245.730 57.87640
1246.212 57.32495
1246.694 57.51849
1247.176 57.30969
1247.658 56.67053
1248.140 56.75256
1248.622 58.74188
1249.105 59.25677
1249.587 57.00958
1250.069 55.08014
1250.551 54.36505
1251.033 53.73828
1251.515 52.37427
1251.997 50.89258
1252.479 50.21814
1252.962 50.26581
1253.444 51.12939
1253.926 52.73755
1254.408 49.89801
1254.890 42.85895
1255.372 40.77448
1255.854 45.22919
1256.336 46.77032
1256.818 39.89624
1257.301 31.47076
1257.783 29.29889
1258.265 29.58649
1258.747 27.04004
1259.229 23.87268
1259.711 24.11621
1260.193 25.69421
1260.675 23.78369
1261.157 18.58429
1261.640 14.70038
1262.122 13.80621
1262.604 12.88593
1263.086 10.97943
1263.568 8.893433
1264.050 5.948853
1264.532 3.983093
1265.014 4.924805
1265.497 6.598511
1265.979 6.667542
1266.461 5.302246
1266.943 2.831543
1267.425 1.282654
1267.907 1.723694
1268.389 2.057434
1268.871 2.969910
1269.354 0.2972410
1269.836 2.482666
1270.318 1.177368
1270.800 0.9269410
1271.282 1.220886
1271.764 0.7382810
1272.246 0.8305660
1272.728 1.520935
1273.210 3.459290
1273.693 5.694702
1274.175 6.447815
1274.657 5.812683
1275.139 4.609924
1275.621 2.995972
1276.103 2.173096
1276.585 2.136292
1277.067 2.817932
1277.549 6.886719
1278.032 10.48993
1278.514 8.032593
1278.996 6.377747
1279.478 6.639343
1279.960 7.885437
1280.442 7.330017
1280.924 4.692383
1281.406 5.149109
1281.889 9.919861
1282.371 11.45013
1282.853 8.427734
1283.335 6.223511
1283.817 6.257507
1284.299 5.789673
1284.781 2.604004
1285.263 4.1198999E-02
1285.745 1.233887
1286.228 0.0000000E+00
