#Shining_header
#Data type:raman_database
#CAS:Not entered
#Material scientific name:Brassite
#Manufacturer:Not entered
#Laser model:Not entered
#Spectrometer model:Not entered
#Testing unit:Not entered
#Test time:Not entered
#Other experimental details:Not entered
#Shining_data
168.2160 0.0000000E+00
168.6981 0.2110290
169.1802 0.3630370
169.6623 6.3262999E-02
170.1444 7.6903999E-02
170.6266 0.1041560
171.1087 0.4470830
171.5908 1.068970
172.0729 1.744751
172.5550 2.304871
173.0371 2.689941
173.5193 2.999939
174.0014 3.369751
174.4835 3.680878
174.9656 4.370056
175.4477 5.927704
175.9298 7.613586
176.4120 8.675720
176.8941 8.795746
177.3762 8.400848
177.8583 8.690430
178.3404 10.30853
178.8225 11.84793
179.3047 13.48596
179.7868 14.92276
180.2689 15.71838
180.7510 15.62305
181.2331 14.88943
181.7152 14.66049
182.1974 15.85193
182.6795 16.46127
183.1616 15.77145
183.6437 14.28635
184.1258 12.87329
184.6079 12.02957
185.0900 11.66492
185.5722 11.22391
186.0543 10.67429
186.5364 10.09875
187.0185 9.483734
187.5006 8.860016
187.9827 8.352570
188.4649 8.030792
188.9470 7.838806
189.4291 7.664429
189.9112 7.265839
190.3933 7.399048
190.8754 8.531708
191.3576 10.47687
191.8397 12.11490
192.3218 12.44940
192.8039 11.83221
193.2860 11.75873
193.7681 12.91299
194.2503 14.44553
194.7324 15.62811
195.2145 16.29343
195.6966 16.79938
196.1787 17.99780
196.6608 19.02844
197.1430 19.48602
197.6251 19.44833
198.1072 19.08157
198.5893 18.81863
199.0714 18.76276
199.5535 18.61584
200.0357 18.19229
200.5178 17.62668
200.9999 17.06833
201.4820 16.58774
201.9641 16.14410
202.4462 15.68362
202.9284 15.47968
203.4105 14.73709
203.8926 12.73544
204.3747 10.29538
204.8568 8.484253
205.3389 7.964722
205.8211 8.410919
206.3032 8.349945
206.7853 7.260681
207.2674 6.266846
207.7495 5.577148
208.2316 5.116241
208.7138 4.794128
209.1959 4.575470
209.6780 4.423309
210.1601 4.063660
210.6422 3.299225
211.1243 2.521149
211.6065 1.641907
212.0886 0.8075560
212.5707 0.2775570
213.0528 0.2421570
213.5349 0.6353450
214.0170 0.8121340
214.4992 0.6829220
214.9813 0.4588320
215.4634 6.7657001E-02
215.9455 0.3828740
216.4276 0.6573180
216.9097 0.5737920
217.3919 0.1938780
217.8740 0.1100770
218.3561 0.5490720
218.8382 0.9785460
219.3203 1.194763
219.8024 1.238556
220.2845 1.257050
220.7667 1.357513
221.2488 1.492523
221.7309 1.430542
222.2130 0.8608090
222.6951 0.4130250
223.1772 0.6215820
223.6594 1.318085
224.1415 1.660522
224.6236 1.005585
225.1057 0.2997130
225.5878 1.015259
226.0699 0.9274290
226.5521 0.6389770
227.0342 0.6023860
227.5163 0.8009640
227.9984 1.036957
228.4805 1.199005
228.9626 1.359680
229.4448 1.654358
229.9269 2.138763
230.4090 2.680389
230.8911 3.204468
231.3732 3.708557
231.8553 4.129181
232.3375 4.372284
232.8196 4.544403
233.3017 4.751587
233.7838 4.984375
234.2659 5.315399
234.7480 5.899414
235.2302 6.778046
235.7123 7.510529
236.1944 7.745972
236.6765 7.864655
237.1586 8.183960
237.6407 8.779968
238.1229 9.506165
238.6050 10.22516
239.0871 10.94818
239.5692 11.58353
240.0513 12.12378
240.5334 12.55569
241.0156 12.82947
241.4977 12.93134
241.9798 12.98145
242.4619 13.19174
242.9440 13.67651
243.4261 13.87625
243.9083 13.36310
244.3904 12.76129
244.8725 12.54050
245.3546 12.76697
245.8367 13.04520
246.3188 12.75461
246.8010 11.60022
247.2831 10.79965
247.7652 10.65939
248.2473 10.71283
248.7294 10.78616
249.2115 10.80987
249.6937 10.70312
250.1758 10.27429
250.6579 9.231171
251.1400 8.677155
251.6221 9.096710
252.1042 9.569824
252.5864 9.588623
253.0685 9.097260
253.5506 8.331909
254.0327 7.488129
254.5148 6.344360
254.9969 5.899017
255.4790 6.536438
255.9612 7.419739
256.4433 8.215729
256.9254 8.838867
257.4075 9.293549
257.8896 9.556946
258.3718 9.564056
258.8539 9.666046
259.3360 9.718781
259.8181 9.963257
260.3002 10.65131
260.7823 11.69589
261.2645 12.73502
261.7466 13.40350
262.2287 13.61511
262.7108 14.11102
263.1929 15.11166
263.6750 16.12329
264.1572 17.00104
264.6393 17.70682
265.1214 18.15848
265.6035 18.22171
266.0856 17.86951
266.5677 18.22083
267.0499 19.93906
267.5320 21.55118
268.0141 22.33856
268.4962 22.46344
268.9783 22.51978
269.4604 22.89438
269.9426 23.56039
270.4247 24.20367
270.9068 24.71094
271.3889 25.38297
271.8710 26.60403
272.3531 28.06949
272.8352 29.02283
273.3174 28.95084
273.7995 28.09073
274.2816 27.65115
274.7637 28.00195
275.2458 28.31503
275.7279 28.11035
276.2101 27.64023
276.6922 27.56943
277.1743 28.29926
277.6564 29.47696
278.1385 30.03204
278.6206 29.63065
279.1028 29.36813
279.5849 29.60840
280.0670 30.21732
280.5491 30.91440
281.0312 31.57367
281.5133 32.19891
281.9955 32.88956
282.4776 33.71585
282.9597 34.63297
283.4418 35.64505
283.9239 36.64789
284.4060 37.52475
284.8882 38.25949
285.3703 38.87534
285.8524 39.32315
286.3345 39.57333
286.8166 40.02524
287.2987 40.82031
287.7809 41.81357
288.2630 42.86209
288.7451 43.94894
289.2272 45.03522
289.7093 46.07834
290.1914 47.08655
290.6736 48.01770
291.1557 48.68655
291.6378 49.34134
292.1199 50.38440
292.6020 51.89731
293.0841 53.31760
293.5663 54.21796
294.0484 54.62018
294.5305 54.73450
295.0126 54.42206
295.4947 53.93134
295.9768 53.53101
296.4590 53.21429
296.9411 52.66983
297.4232 51.59137
297.9053 50.14642
298.3874 48.89087
298.8695 47.84637
299.3517 46.98309
299.8338 46.51990
300.3159 46.35236
300.7980 45.74408
301.2801 44.25677
301.7622 42.17343
302.2444 40.10077
302.7265 37.90442
303.2086 36.02460
303.6907 35.00900
304.1728 34.58453
304.6549 33.74258
305.1371 32.05862
305.6192 29.95053
306.1013 28.04187
306.5834 26.35129
307.0655 24.66351
307.5476 22.77579
308.0298 20.82422
308.5119 19.14124
308.9940 17.84497
309.4761 16.70422
309.9582 15.42075
310.4403 14.01437
310.9225 12.78232
311.4046 11.99191
311.8867 11.36707
312.3688 10.41409
312.8509 9.016113
313.3330 7.650940
313.8152 6.907593
314.2973 6.567627
314.7794 5.920074
315.2615 4.390717
315.7436 2.740356
316.2257 1.773041
316.7079 1.511536
317.1900 1.690857
317.6721 2.409393
318.1542 3.404480
318.6363 4.053162
319.1184 4.297943
319.6006 4.196716
320.0827 3.546753
320.5648 2.450073
321.0469 1.704102
321.5290 1.780975
322.0111 2.302582
322.4933 2.526031
322.9754 2.375763
323.4575 2.168427
323.9396 1.931671
324.4217 1.751678
324.9038 2.003052
325.3860 3.003479
325.8681 4.063934
326.3502 4.063080
326.8323 3.001160
327.3144 2.236053
327.7965 2.482300
328.2787 3.269501
328.7608 3.854980
329.2429 4.135223
329.7250 4.159027
330.2071 3.796631
330.6892 3.138611
331.1714 2.733459
331.6535 2.884003
332.1356 3.216370
332.6177 3.387848
333.0998 3.380219
333.5819 3.210327
334.0641 2.875061
334.5462 2.371124
335.0283 1.746094
335.5104 0.7344970
335.9925 0.1353450
336.4746 0.3729250
336.9568 0.1126400
337.4389 5.7979999E-03
337.9210 0.3932500
338.4031 1.023285
338.8852 1.190979
339.3673 0.7324220
339.8495 0.2830510
340.3316 0.1402590
340.8137 0.1787720
341.2958 9.1187000E-02
341.7779 0.2643740
342.2600 0.5787960
342.7421 0.2859190
343.2242 0.6890870
343.7064 1.459686
344.1885 1.893280
344.6706 2.024506
345.1527 1.749207
345.6348 1.059509
346.1169 0.4169010
346.5991 0.2518620
347.0812 0.6074520
347.5633 0.9748540
348.0454 1.732574
348.5275 2.193298
349.0096 1.618988
349.4918 0.2179570
349.9739 0.9508670
350.4560 1.164429
350.9381 0.6735530
351.4202 0.7523500
351.9023 1.891357
352.3845 2.929230
352.8666 3.478546
353.3487 3.691772
353.8308 3.809326
354.3129 3.912659
354.7950 4.029388
355.2772 4.206940
355.7593 4.390991
356.2414 4.760406
356.7235 5.638794
357.2056 6.546509
357.6877 6.897003
358.1699 6.625702
358.6520 6.261108
359.1341 6.394135
359.6162 7.152283
360.0983 7.779907
360.5804 8.232605
361.0626 8.614929
361.5447 8.855408
362.0268 9.052307
362.5089 9.534912
362.9910 10.59927
363.4731 12.12741
363.9553 12.97461
364.4374 12.36035
364.9195 12.03479
365.4016 12.44220
365.8837 13.32715
366.3658 14.37054
366.8480 15.44019
367.3301 16.50516
367.8122 17.47531
368.2943 18.01974
368.7764 19.01447
369.2585 20.85294
369.7407 22.83493
370.2228 24.37918
370.7049 25.44034
371.1870 26.42023
371.6691 27.78024
372.1512 29.59583
372.6334 31.30450
373.1155 32.94257
373.5976 34.43536
374.0797 35.50665
374.5618 36.41113
375.0439 37.72733
375.5261 39.90656
376.0082 42.69693
376.4903 44.81546
376.9724 45.76849
377.4545 46.70993
377.9366 47.60587
378.4188 48.69125
378.9009 50.31146
379.3830 52.56180
379.8651 55.03067
380.3472 57.04013
380.8293 58.50925
381.3115 59.81403
381.7936 60.69708
382.2757 61.65845
382.7578 63.08932
383.2399 64.91580
383.7220 66.67389
384.2042 67.91864
384.6863 68.69516
385.1684 69.65997
385.6505 70.99591
386.1326 72.27319
386.6147 73.37897
387.0969 74.31140
387.5790 75.07068
388.0611 75.65643
388.5432 76.07748
389.0253 76.24179
389.5074 76.01672
389.9896 76.12869
390.4717 77.54999
390.9538 78.96854
391.4359 79.09921
391.9180 77.72067
392.4001 76.14001
392.8823 75.29880
393.3644 75.14743
393.8465 75.50519
394.3286 76.76730
394.8107 77.83572
395.2928 77.64536
395.7750 76.47568
396.2571 75.29318
396.7392 74.36343
397.2213 73.70465
397.7034 73.41949
398.1855 73.53802
398.6677 73.58411
399.1498 73.26852
399.6319 72.69238
400.1140 72.12851
400.5961 71.61462
401.0782 71.05890
401.5604 70.32898
402.0425 69.50717
402.5246 68.85721
403.0067 68.52649
403.4888 68.25870
403.9709 67.57773
404.4531 66.40411
404.9352 65.42355
405.4173 65.01712
405.8994 64.68698
406.3815 63.82019
406.8636 62.44992
407.3458 61.27670
407.8279 60.92438
408.3100 61.31247
408.7921 61.11511
409.2742 59.95441
409.7563 58.71872
410.2385 57.68457
410.7206 56.81100
411.2027 56.11093
411.6848 55.60699
412.1669 55.03796
412.6490 53.82990
413.1311 51.21176
413.6133 49.30090
414.0954 48.74139
414.5775 48.03156
415.0596 47.19870
415.5417 46.25375
416.0238 44.84924
416.5060 44.07742
416.9881 43.09390
417.4702 42.14426
417.9523 41.54990
418.4344 40.27454
418.9165 39.57950
419.3987 38.63678
419.8808 37.83426
420.3629 36.81598
420.8450 35.89362
421.3271 35.23242
421.8092 34.46228
422.2914 33.52200
422.7735 33.05017
423.2556 32.83862
423.7377 32.35803
424.2198 31.70688
424.7019 31.08209
425.1841 30.63004
425.6662 30.30215
426.1483 29.83987
426.6304 29.10989
427.1125 28.35458
427.5946 27.70813
428.0768 27.11261
428.5589 26.50900
429.0410 25.89651
429.5231 25.34320
430.0052 24.82605
430.4873 24.29166
430.9695 23.85895
431.4516 23.73062
431.9337 23.60788
432.4158 23.02679
432.8979 21.96915
433.3800 21.22705
433.8622 21.48706
434.3443 22.19193
434.8264 22.34265
435.3085 21.80954
435.7906 21.16998
436.2727 20.84476
436.7549 20.75366
437.2370 20.52365
437.7191 20.05630
438.2012 19.53372
438.6833 19.02155
439.1654 18.56799
439.6476 18.20340
440.1297 17.86908
440.6118 17.54053
441.0939 17.26746
441.5760 17.18799
442.0581 16.83261
442.5403 15.66898
443.0224 14.61792
443.5045 14.52258
443.9866 15.27255
444.4687 16.16003
444.9508 16.69141
445.4330 16.88480
445.9151 16.77060
446.3972 15.92206
446.8793 15.22214
447.3614 14.86261
447.8435 14.70355
448.3257 14.58197
448.8078 14.45581
449.2899 14.39005
449.7720 14.49042
450.2541 14.82825
450.7362 15.00760
451.2184 14.95129
451.7005 14.82471
452.1826 14.66180
452.6647 14.47079
453.1468 14.27020
453.6289 14.11203
454.1111 13.91214
454.5932 13.34586
455.0753 12.16916
455.5574 11.32538
456.0395 11.45404
456.5216 11.88718
457.0038 12.15335
457.4859 12.16354
457.9680 11.96170
458.4501 11.51758
458.9322 10.89035
459.4143 10.29700
459.8965 9.780090
460.3786 9.242767
460.8607 8.520844
461.3428 7.716202
461.8249 7.110474
462.3070 6.887848
462.7892 6.758987
463.2713 6.545273
463.7534 6.235626
464.2355 5.807816
464.7176 5.229691
465.1997 4.596619
465.6819 4.045151
466.1640 3.563919
466.6461 3.213348
467.1282 3.063034
467.6103 3.010284
468.0924 3.080643
468.5746 3.197250
469.0567 3.048340
469.5388 2.352844
470.0209 1.241318
470.5030 0.5840150
470.9851 0.8240810
471.4673 1.002136
471.9494 1.038452
472.4315 0.9427640
472.9136 0.7057800
473.3957 0.3405150
473.8778 9.4512999E-02
474.3600 0.6032560
474.8421 1.258652
475.3242 1.439697
475.8063 0.5139010
476.2884 0.2297360
476.7705 0.2784270
477.2527 0.1211240
477.7348 0.5444180
478.2169 0.8065490
478.6990 0.9970400
479.1811 1.376465
479.6632 2.029236
480.1454 2.123444
480.6275 0.8377230
481.1096 0.4576110
481.5917 0.5065770
482.0738 0.5820160
482.5559 1.653305
483.0380 2.297058
483.5201 2.537354
484.0023 2.284225
484.4844 1.519455
484.9665 0.7271880
485.4486 5.7326999E-02
485.9307 0.3827210
486.4128 0.3029480
486.8950 0.6420440
487.3771 1.342880
487.8592 1.217758
488.3413 0.7047880
488.8234 0.3981930
489.3055 0.4099730
489.7877 0.5074770
490.2698 0.4831850
490.7519 0.3403780
491.2340 8.9570004E-03
491.7161 0.8157200
492.1982 1.450104
492.6804 1.567139
493.1625 1.399170
493.6446 1.280685
494.1267 1.338287
494.6088 1.477448
495.0909 1.587708
495.5731 1.756149
496.0552 1.617783
496.5373 0.4729920
497.0194 0.3175960
497.5015 6.4727999E-02
497.9836 1.232376
498.4658 2.312317
498.9479 2.879105
499.4300 3.023239
499.9121 2.783478
500.3942 2.055527
500.8763 1.627213
501.3585 2.003448
501.8406 2.527557
502.3227 2.480667
502.8048 1.878342
503.2869 1.514084
503.7690 1.911942
504.2512 2.715546
504.7333 3.525009
505.2154 4.318054
505.6975 4.679596
506.1796 4.172501
506.6617 3.160873
507.1439 2.836227
507.6260 3.573730
508.1081 4.178848
508.5902 4.154999
509.0723 3.923630
509.5544 3.990128
510.0366 4.424713
510.5187 4.946899
511.0008 5.300568
511.4829 5.486862
511.9650 5.680634
512.4471 6.289444
512.9293 6.420761
513.4114 5.333496
513.8935 3.943893
514.3756 3.367889
514.8577 3.896103
515.3398 4.836655
515.8220 5.309219
516.3041 5.261932
516.7862 5.314041
517.2683 5.561707
517.7504 5.791748
518.2325 5.990829
518.7147 6.092484
519.1968 5.917953
519.6789 5.269180
520.1610 4.675034
520.6431 4.882813
521.1252 5.778564
521.6074 6.412750
522.0895 6.491806
522.5716 6.386703
523.0537 6.554062
523.5358 6.941528
524.0179 7.087112
524.5001 6.526901
524.9822 6.041901
525.4643 6.351242
525.9464 7.216400
526.4285 7.917053
526.9106 8.148636
527.3928 8.039261
527.8749 7.803604
528.3570 7.275848
528.8391 7.005157
529.3212 7.240646
529.8033 7.477997
530.2855 7.257095
530.7676 6.796265
531.2497 6.706863
531.7318 7.376938
532.2139 8.478699
532.6960 9.189819
533.1782 9.505814
533.6603 9.622803
534.1424 9.287094
534.6245 8.901627
535.1066 8.717987
535.5887 8.705307
536.0709 8.648056
536.5530 8.323807
537.0351 7.914627
537.5172 7.885040
537.9993 8.303375
538.4814 8.484406
538.9636 7.898270
539.4457 7.017029
539.9278 6.692673
540.4099 6.992981
540.8920 7.320648
541.3741 7.683014
541.8563 7.950241
542.3384 7.871048
542.8205 7.521194
543.3026 7.370071
543.7847 7.737671
544.2668 8.410599
544.7490 8.651688
545.2311 8.053986
545.7132 7.656967
546.1953 7.601151
546.6774 7.684891
547.1595 7.801071
547.6417 7.904572
548.1238 7.944687
548.6059 7.868988
549.0880 7.727386
549.5701 7.716003
550.0522 7.903198
550.5344 7.960236
551.0165 7.551529
551.4986 7.118347
551.9807 7.029831
552.4628 7.308746
552.9449 7.679031
553.4271 8.062729
553.9092 8.396835
554.3913 8.492554
554.8734 8.337463
555.3555 8.314987
555.8376 8.708954
556.3198 9.278687
556.8019 9.390594
557.2840 8.835266
557.7661 8.398636
558.2482 8.286026
558.7303 8.302444
559.2125 8.320251
559.6946 8.316177
560.1767 8.258286
560.6588 8.091827
561.1409 7.906372
561.6230 8.115540
562.1052 9.061325
562.5873 9.838409
563.0694 10.47693
563.5515 10.83711
564.0336 10.62837
564.5157 9.965958
564.9979 9.416885
565.4800 9.465561
565.9621 9.872162
566.4442 9.985580
566.9263 9.746292
567.4084 9.609314
567.8906 9.816299
568.3727 10.15915
568.8548 10.31094
569.3369 10.24684
569.8190 10.31892
570.3011 10.80687
570.7833 11.38074
571.2654 11.64896
571.7475 11.64972
572.2296 11.71228
572.7117 12.04070
573.1938 12.51578
573.6760 12.83913
574.1581 12.91132
574.6402 12.97835
575.1223 12.96782
575.6044 13.01318
576.0865 13.28517
576.5687 13.68440
577.0508 13.95097
577.5329 13.92545
578.0150 13.69513
578.4971 13.40796
578.9792 13.02713
579.4614 12.87946
579.9435 13.28006
580.4256 13.63795
580.9077 13.43336
581.3898 12.80698
581.8719 12.30324
582.3541 12.06720
582.8362 12.07558
583.3183 12.53752
583.8004 13.28459
584.2825 13.59419
584.7646 13.18295
585.2468 12.48328
585.7289 12.01367
586.2110 11.79466
586.6931 11.75548
587.1752 12.09155
587.6573 12.39859
588.1394 12.51007
588.6215 12.47852
589.1036 12.42230
589.5858 12.38414
590.0679 12.27475
590.5500 11.90225
591.0321 11.21835
591.5142 10.82074
591.9963 10.84908
592.4785 11.01901
592.9606 11.31183
593.4427 11.58093
593.9248 11.58797
594.4069 11.22983
594.8890 10.86850
595.3712 10.73612
595.8533 10.79985
596.3354 11.12560
596.8175 11.74475
597.2996 11.96539
597.7817 11.09930
598.2639 9.435654
598.7460 8.627136
599.2281 9.430054
599.7102 9.958542
600.1923 9.801926
600.6744 9.361557
601.1566 8.863388
601.6387 8.410919
602.1208 8.164780
602.6029 8.280609
603.0850 8.654739
603.5671 8.873779
604.0493 8.887100
604.5314 8.899323
605.0135 8.955841
605.4956 8.977737
605.9777 8.938980
606.4598 8.848846
606.9420 8.723129
607.4241 8.591431
607.9062 8.411179
608.3883 8.105270
608.8704 7.694443
609.3525 7.314880
609.8347 7.032867
610.3168 6.738007
610.7989 6.237259
611.2810 5.434113
611.7631 4.931366
612.2452 4.841293
612.7274 4.917007
613.2095 5.244415
613.6916 5.606125
614.1737 5.683884
614.6558 5.376099
615.1379 4.851700
615.6201 4.204590
616.1022 3.421204
616.5843 3.148193
617.0664 3.682434
617.5485 4.200485
618.0306 4.212845
618.5128 4.039383
618.9949 4.152771
619.4770 4.713531
619.9591 5.004730
620.4412 4.309006
620.9233 3.230682
621.4055 2.739487
621.8876 2.877029
622.3697 3.096191
622.8518 3.080780
623.3339 2.889679
623.8160 2.696899
624.2982 2.571030
624.7803 2.325272
625.2624 1.684418
625.7445 1.175385
626.2266 1.179153
626.7087 1.579849
627.1909 2.108795
627.6730 2.665878
628.1551 3.074234
628.6372 2.945862
629.1193 2.263931
629.6014 1.641418
630.0836 1.136078
630.5657 0.7659150
631.0478 0.5363010
631.5299 0.4542540
632.0120 0.5943300
632.4941 1.248032
632.9763 1.719284
633.4584 1.413101
633.9405 0.8085780
634.4226 0.6855160
634.9047 1.135300
635.3868 1.624619
635.8690 1.700638
636.3511 1.421768
636.8332 1.184311
637.3153 0.9093020
637.7974 0.8153990
638.2795 1.138199
638.7617 1.459656
639.2438 1.473053
639.7259 1.199158
640.2080 0.8444670
640.6901 0.4635930
641.1722 0.1327510
641.6544 2.0721000E-02
642.1365 7.5530000E-03
642.6186 9.3750000E-02
643.1007 0.3004000
643.5828 0.4788210
644.0649 0.4623110
644.5471 0.2372890
645.0292 8.2932003E-02
645.5113 5.7571001E-02
645.9934 3.4790002E-02
646.4755 7.4280001E-02
646.9576 0.1852720
647.4398 0.1166230
647.9219 0.1232150
648.4040 0.2416080
648.8861 0.1138920
649.3682 0.8269960
649.8503 1.117996
650.3325 0.8221890
650.8146 0.5509190
651.2967 0.4806670
651.7788 0.5199740
652.2609 0.6447140
652.7430 0.8382110
653.2252 0.9088900
653.7073 0.6355130
654.1894 0.3339690
654.6715 0.3881680
655.1536 0.6578370
655.6357 0.6691280
656.1179 0.2546390
656.6000 0.2450100
657.0821 0.3790740
657.5642 0.1001130
658.0463 5.6595001E-02
658.5284 4.3655001E-02
659.0106 4.4388000E-02
659.4927 0.3238070
659.9748 0.5927120
660.4569 0.5983580
660.9390 0.3245540
661.4211 4.9545001E-02
661.9033 0.1380460
662.3854 0.1397250
662.8675 0.4538730
663.3496 1.641479
663.8317 2.401978
664.3138 2.194107
664.7960 1.664246
665.2781 1.792786
665.7602 2.756622
666.2423 3.388657
666.7244 3.400314
667.2065 3.360077
667.6887 3.395172
668.1708 3.589355
668.6529 4.153046
669.1350 5.088943
669.6171 5.966934
670.0992 6.217941
670.5814 5.953247
671.0635 6.169937
671.5456 7.039444
672.0277 7.841354
672.5098 8.294647
672.9919 8.558441
673.4741 8.752457
673.9562 8.867554
674.4383 9.246750
674.9204 10.36925
675.4025 11.45343
675.8846 11.64133
676.3668 11.35173
676.8489 11.62102
677.3310 12.78569
677.8131 14.26999
678.2952 15.37607
678.7773 16.09825
679.2595 16.58244
679.7416 16.54324
680.2237 16.73172
680.7058 17.52812
681.1879 18.52353
681.6700 19.31454
682.1522 19.86208
682.6343 20.45959
683.1164 21.32245
683.5985 22.27254
684.0806 23.05792
684.5627 23.73872
685.0449 24.58018
685.5270 25.70042
686.0091 26.82619
686.4912 27.58754
686.9733 27.93901
687.4554 28.34503
687.9376 28.60263
688.4197 29.17393
688.9018 30.53854
689.3839 32.03667
689.8660 33.01215
690.3481 33.42249
690.8303 33.70241
691.3124 34.07491
691.7945 34.54456
692.2766 35.21358
692.7587 36.06766
693.2408 36.81326
693.7230 37.34413
694.2051 37.76224
694.6872 38.20030
695.1693 38.66408
695.6514 38.88739
696.1335 38.64859
696.6157 38.50508
697.0978 38.71585
697.5799 39.02960
698.0620 39.16808
698.5441 39.11420
699.0262 39.07072
699.5084 39.24847
699.9905 39.45956
700.4726 39.12787
700.9547 38.22166
701.4368 37.77818
701.9189 38.25160
702.4011 38.80623
702.8832 38.59061
703.3653 37.68959
703.8474 37.05940
704.3295 37.04312
704.8116 36.87140
705.2938 36.19965
705.7759 35.34662
706.2580 34.57625
706.7401 33.93451
707.2222 33.39658
707.7043 33.03946
708.1865 32.73386
708.6686 31.96246
709.1507 30.64046
709.6328 29.81757
710.1149 29.90129
710.5970 30.04758
711.0792 29.54749
711.5613 28.63957
712.0434 27.98911
712.5255 27.85277
713.0076 27.51587
713.4897 26.64163
713.9719 25.59550
714.4540 24.66661
714.9361 23.85811
715.4182 23.02988
715.9003 22.09953
716.3824 21.24152
716.8646 20.92342
717.3467 21.23744
717.8288 21.05847
718.3109 20.10275
718.7930 19.01418
719.2751 17.89467
719.7573 16.96794
720.2394 16.73360
720.7215 17.46663
721.2036 18.04176
721.6857 18.17703
722.1678 17.90453
722.6500 16.99487
723.1321 15.71648
723.6142 14.70982
724.0963 14.24518
724.5784 14.07796
725.0605 13.93401
725.5427 13.81950
726.0248 13.42717
726.5069 12.60239
726.9890 11.84569
727.4711 11.45026
727.9532 11.16081
728.4354 10.68469
728.9175 10.01015
729.3995 9.308624
729.8817 8.543823
730.3638 7.855438
730.8459 7.335892
731.3280 6.961868
731.8101 6.707413
732.2922 6.555908
732.7744 6.464874
733.2565 6.422226
733.7386 6.394257
734.2207 6.164169
734.7028 5.717285
735.1849 5.091995
735.6671 3.971939
736.1492 3.023102
736.6313 3.115082
737.1134 3.940201
737.5955 4.110001
738.0776 2.770828
738.5598 1.451538
739.0419 0.8574830
739.5240 0.7281800
740.0061 0.8812410
740.4882 1.196259
740.9703 1.415375
741.4525 1.363388
741.9346 1.111084
742.4167 0.7940830
742.8988 0.3870240
743.3809 8.6060002E-02
743.8630 9.5398001E-02
744.3452 0.1618350
744.8273 1.4500000E-03
745.3094 0.2416530
745.7915 0.3123320
746.2736 0.2093660
746.7557 0.1104580
747.2379 1.031265
747.7200 1.862579
748.2021 1.892059
748.6842 1.366806
749.1663 0.9149320
749.6484 0.7945400
750.1306 0.8646700
750.6127 0.9808960
751.0948 1.136948
751.5769 1.242599
752.0590 1.293213
752.5411 1.289597
753.0233 1.114731
753.5054 0.9963680
753.9875 1.311264
754.4696 2.050430
754.9517 2.660278
755.4338 3.060150
755.9160 3.328857
756.3981 3.477020
756.8802 3.526611
757.3623 3.540359
757.8444 3.499405
758.3265 3.250702
758.8087 2.619217
759.2908 1.815369
759.7729 1.277832
760.2550 1.009201
760.7371 1.016998
761.2192 1.399643
761.7014 1.789139
762.1835 1.934540
762.6656 1.853165
763.1477 1.616623
763.6298 1.185928
764.1119 0.6847840
764.5941 5.5755999E-02
765.0762 0.5743100
765.5583 1.127274
766.0404 1.616348
766.5225 2.051422
767.0046 2.435638
767.4868 2.873962
767.9689 3.533722
768.4510 4.328094
768.9331 4.913010
769.4152 5.273712
769.8973 5.921082
770.3795 7.135788
770.8616 8.558121
771.3437 9.678940
771.8258 10.42972
772.3079 11.32309
772.7900 12.27094
773.2722 13.46103
773.7543 15.22061
774.2364 17.04204
774.7185 18.40440
775.2006 19.33670
775.6827 20.24837
776.1649 21.23938
776.6470 22.48149
777.1291 24.27716
777.6112 26.46523
778.0933 28.57054
778.5754 30.52797
779.0576 32.73271
779.5397 35.52068
780.0218 38.64214
780.5039 41.26772
780.9860 43.08783
781.4681 45.25043
781.9503 47.86526
782.4324 50.74590
782.9145 53.88522
783.3966 57.20093
783.8787 60.64473
784.3608 64.19974
784.8430 67.80333
785.3251 71.35536
785.8072 74.99709
786.2893 78.82060
786.7714 82.86133
787.2535 87.16208
787.7357 91.74777
788.2178 96.72717
788.6999 102.2816
789.1820 108.2993
789.6641 113.9840
790.1462 119.2117
790.6284 124.7016
791.1105 130.5665
791.5926 136.8308
792.0747 143.7302
792.5568 151.0954
793.0389 158.1344
793.5211 164.2190
794.0032 170.9329
794.4853 179.3209
794.9674 187.8533
795.4495 195.1855
795.9316 201.6743
796.4138 208.4909
796.8959 216.0905
797.3780 223.8871
797.8601 231.1383
798.3422 238.0286
798.8243 245.3474
799.3065 253.1033
799.7886 260.5407
800.2707 267.2945
800.7528 273.8474
801.2349 281.0674
801.7170 289.0718
802.1992 295.8528
802.6813 300.0619
803.1634 304.8618
803.6455 311.6731
804.1276 318.4134
804.6097 323.5098
805.0919 327.0692
805.5740 330.1364
806.0561 333.3892
806.5382 335.8572
807.0203 336.2490
807.5024 335.5516
807.9846 335.8055
808.4667 336.7745
808.9488 336.2554
809.4309 333.0857
809.9130 328.2429
810.3951 323.2630
810.8773 318.1658
811.3594 312.8421
811.8415 307.4889
812.3236 301.3113
812.8057 294.0777
813.2878 285.9078
813.7700 276.4662
814.2521 265.8966
814.7342 256.2635
815.2163 248.8356
815.6984 241.1279
816.1805 231.9076
816.6627 222.1557
817.1448 212.6633
817.6269 203.6295
818.1090 195.2356
818.5911 187.5908
819.0732 180.2915
819.5554 172.7997
820.0375 165.2049
820.5196 157.7794
821.0017 150.5641
821.4838 143.6195
821.9659 136.9743
822.4481 130.6599
822.9302 124.6516
823.4123 118.9099
823.8944 113.7235
824.3765 109.5606
824.8586 105.3074
825.3408 100.5214
825.8229 95.70425
826.3050 91.14719
826.7871 86.90189
827.2692 83.08553
827.7513 79.81613
828.2335 76.86905
828.7156 73.89697
829.1977 71.25986
829.6798 69.92189
830.1619 69.44803
830.6440 67.95131
831.1262 64.44696
831.6083 60.22951
832.0904 57.23410
832.5725 55.37970
833.0546 53.54878
833.5367 51.69960
834.0189 50.11929
834.5010 48.99072
834.9831 48.06032
835.4652 46.97206
835.9473 45.71463
836.4294 44.79581
836.9116 44.35797
837.3937 44.02982
837.8758 43.73633
838.3579 43.54359
838.8400 43.67645
839.3221 43.94020
839.8043 43.76552
840.2864 42.81934
840.7685 42.02797
841.2506 42.03990
841.7327 42.67926
842.2148 43.90158
842.6970 45.53874
843.1791 47.04056
843.6612 48.21315
844.1433 49.35286
844.6254 50.86603
845.1075 52.66150
845.5897 53.92700
846.0718 54.46643
846.5539 55.44542
847.0360 57.26895
847.5181 59.35843
848.0002 61.39151
848.4824 63.30965
848.9645 64.80280
849.4466 65.13814
849.9287 66.42178
850.4108 69.43579
850.8929 72.88261
851.3751 76.28503
851.8572 79.51019
852.3393 82.32358
852.8214 84.70813
853.3035 87.29688
853.7856 90.73169
854.2678 94.44899
854.7499 97.65506
855.2320 100.5603
855.7141 103.7186
856.1962 107.2520
856.6783 110.8300
857.1605 114.2279
857.6426 117.4900
858.1247 120.8478
858.6068 124.3853
859.0889 127.3968
859.5710 129.6909
860.0532 131.8564
860.5353 134.2919
861.0174 136.6168
861.4995 138.1913
861.9816 138.9823
862.4637 139.4693
862.9459 139.8406
863.4280 139.6697
863.9101 138.7289
864.3922 137.2828
864.8743 135.3717
865.3564 133.1596
865.8386 131.1645
866.3207 129.8295
866.8028 128.1681
867.2849 124.9124
867.7670 121.0155
868.2491 117.9851
868.7313 115.7242
869.2134 113.3019
869.6955 110.3221
870.1776 107.0046
870.6597 103.5054
871.1418 99.90950
871.6239 97.04010
872.1060 94.99454
872.5881 92.93285
873.0703 90.71915
873.5524 88.39034
874.0345 85.87720
874.5166 83.28531
874.9987 81.11404
875.4808 79.63498
875.9630 78.07843
876.4451 76.37514
876.9272 74.64107
877.4093 72.89163
877.8914 71.17459
878.3735 69.61894
878.8557 68.21458
879.3378 66.71823
879.8199 64.96858
880.3020 63.13651
880.7841 61.24567
881.2662 59.43549
881.7484 58.08321
882.2305 57.07397
882.7126 55.72000
883.1947 53.63092
883.6768 51.29448
884.1589 49.52882
884.6411 48.19263
885.1232 46.39503
885.6053 44.09348
886.0874 42.15018
886.5695 40.95720
887.0516 39.98108
887.5338 38.57826
888.0159 36.77493
888.4980 35.25171
888.9801 34.31158
889.4622 33.01414
889.9443 31.04274
890.4265 28.94174
890.9086 26.81770
891.3907 24.83611
891.8728 23.33504
892.3549 22.43648
892.8370 21.53836
893.3192 20.43098
893.8013 19.34038
894.2834 18.38611
894.7655 17.51775
895.2476 16.71698
895.7297 15.94250
896.2119 15.04366
896.6940 13.88351
897.1761 12.66393
897.6582 11.51619
898.1403 10.52730
898.6224 9.955444
899.1046 9.768539
899.5867 9.729568
900.0688 9.738358
900.5509 9.603836
901.0330 9.013351
901.5151 8.045547
901.9973 7.378555
902.4794 7.059647
902.9615 6.742493
903.4436 6.388306
903.9257 5.967545
904.4078 5.430923
904.8900 4.817932
905.3721 4.248001
905.8542 3.708435
906.3363 3.263245
906.8184 2.926666
907.3005 2.658447
907.7827 2.472443
908.2648 2.326721
908.7469 2.162018
909.2290 1.982590
909.7111 1.885010
910.1932 2.007523
910.6754 2.071579
911.1575 1.836670
911.6396 1.537994
912.1217 1.473892
912.6038 1.560059
913.0859 1.531677
913.5681 1.291092
914.0502 0.9478910
914.5323 0.5950320
915.0144 0.2250370
915.4965 0.1922610
915.9786 0.6505430
916.4608 1.209732
916.9429 1.860870
917.4250 2.197021
917.9071 1.853592
918.3892 1.140808
918.8713 0.8912660
919.3535 1.181686
919.8356 1.145523
920.3177 0.6224670
920.7998 0.2393190
921.2819 0.3002780
921.7640 0.5044560
922.2462 0.4609530
922.7283 0.1793370
923.2104 0.1743160
923.6925 0.6356660
924.1746 1.119415
924.6567 1.755905
925.1389 2.237885
925.6210 2.331589
926.1031 2.189102
926.5852 2.034683
927.0673 1.895264
927.5494 1.852692
928.0316 2.226044
928.5137 2.377243
928.9958 1.623947
929.4779 0.6293030
929.9600 0.2041780
930.4421 0.3487700
930.9243 0.6128390
931.4064 0.7823030
931.8885 0.9937740
932.3706 1.511475
932.8527 2.081879
933.3348 2.225418
933.8170 2.027344
934.2991 1.827484
934.7812 1.722885
935.2633 1.606201
935.7454 1.383728
936.2275 1.098907
936.7097 0.8270260
937.1918 0.5665280
937.6739 0.4399570
938.1560 0.4925540
938.6381 0.4058380
939.1202 6.0424998E-02
939.6024 0.5128330
940.0845 0.2795720
940.5666 0.6619110
941.0487 1.011505
941.5308 0.5207210
942.0129 3.9641999E-02
942.4951 0.6617280
942.9772 1.185654
943.4593 1.530319
943.9414 1.690704
944.4235 1.608002
944.9056 1.184204
945.3878 0.9233550
945.8699 0.8934780
946.3520 1.015472
946.8341 1.466049
947.3162 1.902283
947.7983 1.948044
948.2805 1.661758
948.7626 1.369247
949.2447 1.152740
949.7268 1.026215
950.2089 1.061691
950.6910 1.131714
951.1732 1.035187
951.6553 0.9099270
952.1374 1.082718
952.6195 1.584427
953.1016 2.078537
953.5837 2.295441
954.0659 2.440018
954.5480 2.875809
955.0301 3.453964
955.5122 3.839584
955.9943 3.990433
956.4764 3.837280
956.9586 3.352768
957.4407 2.832916
957.9228 2.627090
958.4049 2.678650
958.8870 2.703629
959.3691 2.698868
959.8513 3.006226
960.3334 3.744293
960.8155 4.364883
961.2976 4.518555
961.7797 4.408539
962.2618 4.421448
962.7440 4.584824
963.2261 4.584549
963.7082 4.314575
964.1903 4.124130
964.6724 4.107147
965.1545 4.165909
965.6367 4.217087
966.1188 4.284042
966.6009 4.459229
967.0830 4.824493
967.5651 5.072311
968.0472 5.117416
968.5294 5.138199
969.0115 5.119354
969.4936 5.160416
969.9757 5.463547
970.4578 5.930603
970.9399 6.137131
971.4221 5.922363
971.9042 5.581131
972.3863 5.047806
972.8684 4.603653
973.3505 4.400864
973.8326 4.431839
974.3148 4.854004
974.7969 5.545578
975.2790 5.795410
975.7611 5.004868
976.2432 4.166092
976.7253 4.120392
977.2075 4.483826
977.6896 4.955353
978.1717 5.393448
978.6538 5.463989
979.1359 5.085434
979.6180 4.606750
980.1002 4.266281
980.5823 4.138123
981.0644 4.470200
981.5465 5.070847
982.0286 5.348175
982.5107 5.261841
982.9929 5.163162
983.4750 5.236008
983.9571 5.441086
984.4392 5.756378
984.9213 6.128662
985.4034 6.294769
985.8856 6.232178
986.3677 6.074356
986.8498 5.893906
987.3319 5.687515
987.8140 5.389999
988.2961 5.067825
988.7783 4.914200
989.2604 4.944702
989.7425 4.730911
990.2246 4.051346
990.7067 3.899734
991.1888 4.886917
991.6710 5.692917
992.1531 5.195175
992.6352 3.955566
993.1173 3.385040
993.5994 3.692825
994.0815 3.870346
994.5637 3.689835
995.0458 3.716034
995.5279 4.405396
996.0100 5.027588
996.4921 4.948685
996.9742 4.423462
997.4564 4.110199
997.9385 4.073059
998.4206 3.969360
998.9027 3.865280
999.3848 3.702988
999.8669 3.332565
1000.349 2.976349
1000.831 2.914764
1001.313 3.041916
1001.795 2.937119
1002.278 2.366180
1002.760 1.940796
1003.242 1.987564
1003.724 2.152115
1004.206 2.169083
1004.688 2.207428
1005.170 2.582901
1005.652 3.203384
1006.134 3.549850
1006.617 3.310181
1007.099 3.079453
1007.581 3.383484
1008.063 3.786697
1008.545 3.926895
1009.027 3.801117
1009.509 3.260513
1009.991 2.465317
1010.474 2.240280
1010.956 3.268875
1011.438 4.319031
1011.920 3.938293
1012.402 2.888214
1012.884 2.178207
1013.366 1.854874
1013.848 1.906052
1014.330 2.269028
1014.813 2.649368
1015.295 2.835449
1015.777 2.904648
1016.259 2.941025
1016.741 2.962067
1017.223 2.955856
1017.705 3.253662
1018.187 3.438675
1018.669 3.511444
1019.152 3.111847
1019.634 3.320053
1020.116 3.283798
1020.598 3.237732
1021.080 3.528107
1021.562 3.186264
1022.044 3.462692
1022.526 3.491013
1023.008 3.631546
1023.491 3.523972
1023.973 3.491806
1024.455 3.707397
1024.937 3.790939
1025.419 3.661682
1025.901 3.812866
1026.383 3.459747
1026.865 3.545990
1027.348 3.822937
1027.830 3.705353
1028.312 3.862488
1028.794 3.912460
1029.276 3.486465
1029.758 3.882111
1030.240 3.917664
1030.722 3.578369
1031.204 3.927032
1031.687 3.632263
1032.169 3.571930
1032.651 3.692764
1033.133 2.823669
1033.615 2.768478
1034.097 3.748688
1034.579 4.174713
1035.061 3.740051
1035.544 3.318680
1036.026 3.296982
1036.508 3.353638
1036.990 3.095062
1037.472 2.584930
1037.954 2.297836
1038.436 2.225845
1038.918 2.442093
1039.401 3.422729
1039.883 3.937103
1040.365 3.075729
1040.847 1.969711
1041.329 1.957474
1041.811 2.851685
1042.293 3.254242
1042.775 2.761032
1043.257 2.476135
1043.740 2.495575
1044.222 2.601776
1044.704 2.856323
1045.186 3.052673
1045.668 2.895462
1046.150 2.471085
1046.632 2.288223
1047.114 2.601898
1047.596 2.702087
1048.079 2.260147
1048.561 1.933365
1049.043 2.104965
1049.525 2.412933
1050.007 2.534515
1050.489 2.464096
1050.971 2.229004
1051.453 1.501938
1051.936 1.445938
1052.418 3.028168
1052.900 4.329895
1053.382 4.420670
1053.864 3.951462
1054.346 3.419022
1054.828 2.915573
1055.310 2.546921
1055.792 2.339966
1056.275 2.264023
1056.757 2.347382
1057.239 2.547699
1057.721 2.992676
1058.203 3.340637
1058.685 3.093262
1059.167 2.476624
1059.649 2.241058
1060.131 2.644592
1060.614 2.925903
1061.096 2.657440
1061.578 2.460144
1062.060 2.922440
1062.542 3.344254
1063.024 2.868515
1063.506 1.847778
1063.988 1.238419
1064.471 1.331863
1064.953 1.497894
1065.435 1.507126
1065.917 1.548920
1066.399 1.854095
1066.881 2.107498
1067.363 1.882538
1067.845 1.396225
1068.328 1.213882
1068.810 1.478195
1069.292 1.638443
1069.774 1.322342
1070.256 1.025986
1070.738 0.9612120
1071.220 1.057892
1071.702 1.383423
1072.184 1.774475
1072.667 1.906357
1073.149 1.730316
1073.631 1.583374
1074.113 1.647827
1074.595 1.670303
1075.077 1.471420
1075.559 1.248444
1076.041 1.193893
1076.523 1.216370
1077.006 1.084686
1077.488 0.8036650
1077.970 0.7380070
1078.452 1.260376
1078.934 1.642624
1079.416 1.329346
1079.898 0.9467010
1080.380 1.070816
1080.863 1.395721
1081.345 1.413788
1081.827 1.108490
1082.309 0.8484500
1082.791 0.7607570
1083.273 0.7539220
1083.755 0.9120790
1084.237 0.9979250
1084.719 0.6483460
1085.202 0.2583470
1085.684 0.4864200
1086.166 1.171371
1086.648 1.423309
1087.130 0.7989810
1087.612 0.3974760
1088.094 1.010315
1088.576 1.631012
1089.058 1.671738
1089.541 1.384308
1090.023 0.8735200
1090.505 0.3240660
1090.987 0.1483760
1091.469 0.4956970
1091.951 0.8430940
1092.433 1.069855
1092.915 1.134079
1093.397 0.8555300
1093.880 0.5470280
1094.362 0.3943940
1094.844 0.4632260
1095.326 0.9691310
1095.808 1.949249
1096.290 2.496735
1096.772 1.774109
1097.254 1.291473
1097.737 2.005951
1098.219 2.779785
1098.701 2.741623
1099.183 2.207336
1099.665 1.686218
1100.147 1.248123
1100.629 0.8267210
1101.111 0.1972660
1101.594 6.3933998E-02
1102.076 0.5700990
1102.558 1.197006
1103.040 1.259094
1103.522 1.071228
1104.004 0.9923400
1104.486 1.042847
1104.968 1.153610
1105.450 1.404388
1105.932 1.466461
1106.415 1.180283
1106.897 0.8102570
1107.379 0.3926390
1107.861 5.1270002E-03
1108.343 0.4117430
1108.825 0.7385560
1109.307 0.7252200
1109.789 0.2696080
1110.272 0.2287140
1110.754 0.9000700
1111.236 1.283035
1111.718 1.003357
1112.200 0.7119450
1112.682 1.081146
1113.164 1.629105
1113.646 1.334290
1114.129 6.8343997E-02
1114.611 0.5975190
1115.093 0.2216950
1115.575 0.1565700
1116.057 0.5123600
1116.539 0.7841950
1117.021 0.9787900
1117.503 1.048126
1117.985 0.8766480
1118.468 0.5028690
1118.950 0.2794800
1119.432 0.3781280
1119.914 0.2356410
1120.396 0.4607850
1120.878 0.8091430
1121.360 0.2701720
1121.842 0.3399960
1122.324 0.2254490
1122.807 0.3052370
1123.289 0.3066410
1123.771 0.3703460
1124.253 0.7926790
1124.735 0.9343260
1125.217 0.8599090
1125.699 0.4685820
1126.181 0.1489720
1126.664 0.1296840
1127.146 0.3544310
1127.628 0.7744750
1128.110 1.369385
1128.592 1.758774
1129.074 1.977966
1129.556 1.676727
1130.038 0.6826930
1130.521 0.1209720
1131.003 0.3667760
1131.485 0.1887510
1131.967 0.3226320
1132.449 1.055496
1132.931 1.711639
1133.413 2.284714
1133.895 2.288971
1134.377 1.695969
1134.859 1.249512
1135.342 1.147430
1135.824 1.112411
1136.306 0.9312130
1136.788 0.7515720
1137.270 0.9327240
1137.752 1.345459
1138.234 1.256424
1138.716 0.7769930
1139.199 0.6183780
1139.681 0.8584290
1140.163 1.037003
1140.645 0.9407650
1141.127 0.9085240
1141.609 1.419617
1142.091 2.075394
1142.573 1.956955
1143.056 1.398895
1143.538 1.170670
1144.020 1.304794
1144.502 1.763351
1144.984 2.428497
1145.466 2.658539
1145.948 1.924301
1146.430 0.9958190
1146.912 0.6908870
1147.395 0.7413940
1147.877 0.8620000
1148.359 1.018494
1148.841 1.239670
1149.323 1.475159
1149.805 1.546814
1150.287 1.379578
1150.769 1.175522
1151.251 1.092148
1151.734 1.001755
1152.216 0.6274110
1152.698 0.3496400
1153.180 0.7981870
1153.662 1.592224
1154.144 1.840759
1154.626 1.467621
1155.108 1.069519
1155.591 0.7934420
1156.073 0.6807250
1156.555 0.8363190
1157.037 1.054855
1157.519 1.382339
1158.001 1.578461
1158.483 1.176483
1158.965 0.4276280
1159.448 0.2500920
1159.930 0.9563750
1160.412 1.438522
1160.894 1.514694
1161.376 1.396744
1161.858 0.7672120
1162.340 0.3537290
1162.822 0.8920290
1163.304 1.725372
1163.786 1.852570
1164.269 1.300079
1164.751 0.8794250
1165.233 0.6524660
1165.715 0.4040220
1166.197 9.5535003E-02
1166.679 0.2264400
1167.161 0.6046750
1167.643 0.7560810
1168.126 0.4081500
1168.608 0.2287600
1169.090 0.6069030
1169.572 0.7088780
1170.054 0.9443050
1170.536 1.334244
1171.018 1.694611
1171.500 2.013504
1171.983 1.979721
1172.465 1.376785
1172.947 0.7251130
1173.429 0.6061100
1173.911 0.8305820
1174.393 0.8665390
1174.875 0.7587050
1175.357 0.7143480
1175.839 0.7453540
1176.322 0.8411710
1176.804 0.9905320
1177.286 1.128021
1177.768 1.207993
1178.250 1.244720
1178.732 1.354668
1179.214 1.441406
1179.696 1.005127
1180.178 0.4494480
1180.661 0.7874300
1181.143 1.733063
1181.625 2.042564
1182.107 1.360405
1182.589 0.5935130
1183.071 0.1955340
1183.553 5.6168001E-02
1184.035 0.2823490
1184.518 0.5447390
1185.000 0.4553450
1185.482 0.2842100
1185.964 0.4713290
1186.446 0.9518810
1186.928 1.321930
1187.410 1.494652
1187.892 1.527649
1188.375 1.220619
1188.857 1.060326
1189.339 1.492523
1189.821 1.865349
1190.303 1.701752
1190.785 1.219742
1191.267 0.6754000
1191.749 9.8640002E-02
1192.231 0.1469570
1192.714 8.5395999E-02
1193.196 0.3397290
1193.678 0.7155610
1194.160 0.8453750
1194.642 0.5000610
1195.124 0.1625520
1195.606 0.2040180
1196.088 0.4736790
1196.570 0.7085650
1197.053 0.8984990
1197.535 0.7914280
1198.017 0.3733370
1198.499 0.4252620
1198.981 0.9221120
1199.463 1.312035
1199.945 1.362633
1200.427 1.261353
1200.910 1.145683
1201.392 1.091713
1201.874 1.332245
1202.356 1.698479
1202.838 1.692299
1203.320 1.467201
1203.802 1.463463
1204.284 1.679436
1204.766 1.641365
1205.249 1.179550
1205.731 0.7971500
1206.213 0.8597950
1206.695 1.174538
1207.177 1.901794
1207.659 2.483551
1208.141 2.141716
1208.623 1.385109
1209.105 1.088165
1209.588 1.212669
1210.070 0.9953380
1210.552 5.7838000E-02
1211.034 0.3657150
1211.516 0.6865230
1211.998 1.463676
1212.480 1.116814
1212.962 0.6035160
1213.445 0.5022050
1213.927 0.6482320
1214.409 0.8216250
1214.891 1.007843
1215.373 1.075211
1215.855 0.9281160
1216.337 0.9325870
1216.819 1.120445
1217.302 1.370293
1217.784 1.681587
1218.266 1.943558
1218.748 2.103355
1219.230 2.083916
1219.712 1.695572
1220.194 1.087852
1220.676 1.064255
1221.158 1.506851
1221.641 1.448189
1222.123 0.8563690
1222.605 0.4128720
1223.087 0.3966670
1223.569 0.5644530
1224.051 0.8210070
1224.533 1.044029
1225.015 1.088669
1225.497 1.020546
1225.979 0.7778020
1226.462 0.5827260
1226.944 0.8721240
1227.426 1.461243
1227.908 1.820900
1228.390 1.877327
1228.872 2.107445
1229.354 2.969597
1229.836 3.375862
1230.319 2.326759
1230.801 1.411049
1231.283 1.559196
1231.765 2.052261
1232.247 2.320282
1232.729 2.422165
1233.211 2.576157
1233.693 2.791641
1234.176 2.772758
1234.658 2.317902
1235.140 2.152634
1235.622 2.445740
1236.104 2.589172
1236.586 2.334381
1237.068 2.104263
1237.550 2.226158
1238.032 2.548264
1238.515 2.861130
1238.997 3.104179
1239.479 2.813614
1239.961 2.114723
1240.443 1.753265
1240.925 1.772392
1241.407 1.978500
1241.889 2.276970
1242.371 2.459778
1242.854 2.365547
1243.336 2.263100
1243.818 2.565926
1244.300 2.825294
1244.782 2.517975
1245.264 2.057037
1245.746 2.140770
1246.228 2.533829
1246.711 2.615135
1247.193 2.295723
1247.675 1.916573
1248.157 1.506020
1248.639 1.194397
1249.121 1.012527
1249.603 0.9347150
1250.085 1.000221
1250.568 1.119537
1251.050 1.263229
1251.532 1.392067
1252.014 1.418266
1252.496 1.360428
1252.978 1.487938
1253.460 1.877975
1253.942 1.837143
1254.424 1.287209
1254.906 0.8105240
1255.389 0.5537570
1255.871 0.7370300
1256.353 0.3361820
1256.835 1.117226
1257.317 1.613174
1257.799 1.469833
1258.281 1.768997
1258.763 1.656784
1259.246 1.366722
1259.728 1.249969
1260.210 0.3396380
1260.692 0.1157910
1261.174 1.312798
1261.656 0.9529800
1262.138 0.6935650
1262.620 1.107475
1263.103 1.384857
1263.585 0.8794170
1264.067 0.3857650
1264.549 0.4977260
1265.031 0.9282380
1265.513 1.396835
1265.995 1.822166
1266.477 1.591629
1266.959 1.189133
1267.442 0.9436950
1267.924 0.8599090
1268.406 0.9103240
1268.888 0.9754330
1269.370 1.144852
1269.852 1.187981
1270.334 1.319717
1270.816 1.789322
1271.298 2.247696
1271.781 1.656906
1272.263 0.4981230
1272.745 0.1673740
1273.227 0.4035030
1273.709 0.4019470
1274.191 0.1504440
1274.673 8.4760003E-03
1275.155 1.9562000E-02
1275.638 0.1384960
1276.120 0.1660310
1276.602 0.0000000E+00
