name Esperite
cas 12
id 12
Raman_shift Intensity
152.3164 0
152.7985 0.174194
153.2806 0.143311
153.7627 0.016998
154.2448 0.403809
154.7269 2.13858
155.2091 5.419983
155.6912 10.01169
156.1733 16.01208
156.6554 23.3353
157.1375 31.51089
157.6196 39.93655
158.1018 48.37115
158.5839 58.07663
159.066 72.13843
159.5481 85.25406
160.0302 94.33557
160.5123 98.49551
160.9945 98.59512
161.4766 96.04636
161.9587 89.03342
162.4408 81.67624
162.9229 72.31598
163.405 63.77115
163.8871 58.12085
164.3693 56.00238
164.8514 57.35959
165.3335 62.69144
165.8156 73.61649
166.2977 85.46857
166.7798 100.0646
167.262 116.2613
167.7441 131.5755
168.2262 146.597
168.7083 158.6973
169.1904 159.363
169.6725 147.0733
170.1547 130.4058
170.6368 109.9512
171.1189 86.74979
171.601 65.16757
172.0831 46.82611
172.5652 32.22351
173.0474 20.65173
173.5295 12.54373
174.0116 6.70401
174.4937 2.761139
174.9758 1.143341
175.4579 0.922089
175.9401 1.609344
176.4222 2.665253
176.9043 3.532928
177.3864 4.733292
177.8685 5.78273
178.3506 5.98735
178.8328 5.405182
179.3149 5.908234
179.797 11.20531
180.2791 17.0298
180.7612 18.87434
181.2433 14.64642
181.7255 7.63765
182.2076 5.275589
182.6897 10.99242
183.1718 15.28052
183.6539 14.95457
184.136 12.86223
184.6181 12.10968
185.1003 14.25224
185.5824 18.27887
186.0645 20.60495
186.5466 20.50464
187.0287 19.31714
187.5108 15.66705
187.993 11.46536
188.4751 9.205231
188.9572 10.35486
189.4393 14.28934
189.9214 17.56314
190.4035 20.41235
190.8857 22.33801
191.3678 22.90625
191.8499 22.49069
192.332 21.68842
192.8141 20.83203
193.2962 19.90555
193.7784 18.76669
194.2605 17.85352
194.7426 16.34821
195.2247 13.59894
195.7068 9.958557
196.1889 6.356598
196.6711 3.261841
197.1532 0.735229
197.6353 1.201691
198.1174 2.381012
198.5995 3.190002
199.0816 3.867035
199.5638 4.398834
200.0459 4.604584
200.528 4.277283
201.0101 3.661194
201.4922 3.477814
201.9743 4.25119
202.4565 4.943268
202.9386 4.528687
203.4207 2.994904
203.9028 1.507782
204.3849 0.936279
204.867 0.68692
205.3492 0.105042
205.8313 1.841309
206.3134 3.795807
206.7955 4.957031
207.2776 5.147644
207.7597 5.451508
208.2419 6.466248
208.724 7.817383
209.2061 9.186523
209.6882 10.4892
210.1703 12.05878
210.6524 13.62045
211.1346 15.27127
211.6167 16.64743
212.0988 17.69144
212.5809 18.40573
213.063 18.63043
213.5451 18.20941
214.0273 17.62076
214.5094 18.04886
214.9915 20.26544
215.4736 22.12961
215.9557 22.82553
216.4378 23.19122
216.92 24.02487
217.4021 25.67096
217.8842 28.00037
218.3663 30.63113
218.8484 33.55374
219.3305 36.85794
219.8127 40.95929
220.2948 45.26004
220.7769 49.11426
221.259 52.22672
221.7411 54.83289
222.2232 57.61627
222.7054 60.09048
223.1875 63.42505
223.6696 68.15768
224.1517 73.61896
224.6338 79.03165
225.1159 84.06824
225.598 88.88196
226.0802 93.92203
226.5623 98.10059
227.0444 103.8457
227.5265 113.2425
228.0086 123.7729
228.4907 132.1423
228.9729 136.9625
229.455 139.0596
229.9371 140.3723
230.4192 141.8621
230.9013 141.2159
231.3834 136.8356
231.8656 130.3404
232.3477 124.1505
232.8298 119.2164
233.3119 114.8542
233.794 109.4464
234.2761 102.5812
234.7583 95.97165
235.2404 89.67865
235.7225 83.98175
236.2046 79.49234
236.6867 76.57657
237.1688 74.48196
237.651 72.07205
238.1331 69.49997
238.6152 66.12192
239.0973 61.25192
239.5794 55.3934
240.0615 49.60968
240.5437 44.09738
241.0258 39.10028
241.5079 34.97571
241.99 31.64151
242.4721 28.82516
242.9542 26.56647
243.4364 24.77063
243.9185 23.07407
244.4006 21.17767
244.8827 19.81253
245.3648 20.28027
245.8469 22.27585
246.329 23.3403
246.8112 21.49475
247.2933 17.74582
247.7754 15.19949
248.2575 14.68277
248.7396 14.70026
249.2217 14.16168
249.7039 13.16782
250.186 12.02353
250.6681 10.89517
251.1502 9.755493
251.6323 8.39859
252.1144 6.539673
252.5966 4.906982
253.0787 3.803864
253.5608 3.194855
254.0429 3.024475
254.525 3.50061
255.0071 4.529236
255.4893 5.727295
255.9714 7.385864
256.4535 8.578156
256.9356 8.501007
257.4177 7.70047
257.8998 7.218506
258.382 7.746246
258.8641 9.098145
259.3462 10.50629
259.8283 11.87726
260.3104 13.36346
260.7925 15.38199
261.2747 17.59106
261.7568 19.36417
262.2389 20.21918
262.721 20.4111
263.2031 20.69424
263.6852 21.07669
264.1674 21.57098
264.6495 22.04587
265.1316 22.64218
265.6137 23.48657
266.0958 24.6261
266.5779 26.07654
267.0601 27.87772
267.5422 30.04666
268.0243 32.5751
268.5064 36.05698
268.9885 39.52173
269.4706 41.94617
269.9528 42.99768
270.4349 43.35596
270.917 44.27295
271.3991 45.79749
271.8812 47.86084
272.3633 50.10724
272.8455 52.99442
273.3276 57.14648
273.8097 62.59515
274.2918 68.47437
274.7739 73.36334
275.256 76.35706
275.7382 80.32346
276.2202 86.46112
276.7024 92.48416
277.1845 96.87695
277.6666 99.50882
278.1487 101.3629
278.6308 103.7549
279.1129 107.3151
279.5951 109.0906
280.0772 108.5675
280.5593 107.0788
281.0414 105.1589
281.5235 102.9109
282.0056 100.255
282.4878 97.09457
282.9699 93.36115
283.452 89.49005
283.9341 84.18588
284.4162 79.97104
284.8983 79.03061
285.3805 80.22699
285.8626 80.45447
286.3447 77.14157
286.8268 70.38034
287.3089 65.10864
287.791 61.21487
288.2732 58.76999
288.7553 58.49939
289.2374 59.69345
289.7195 61.18863
290.2016 62.32697
290.6837 63.10172
291.1659 63.4949
291.648 63.19287
292.1301 62.86502
292.6122 62.39871
293.0943 62.02277
293.5764 62.28284
294.0586 63.4736
294.5407 64.93457
295.0228 64.87906
295.5049 61.1131
295.987 58.47263
296.4691 57.89316
296.9513 58.19244
297.4334 58.02466
297.9155 56.96909
298.3976 55.70712
298.8797 55.39203
299.3618 56.6412
299.844 57.79169
300.3261 58.45197
300.8082 59.2406
301.2903 61.04486
301.7724 63.86884
302.2545 66.5289
302.7367 67.62885
303.2188 66.7471
303.7009 65.659
304.183 64.92075
304.6651 63.54059
305.1472 60.86523
305.6294 56.90955
306.1115 52.08148
306.5936 46.71768
307.0757 40.78961
307.5578 34.10068
308.0399 24.85223
308.5221 16.7226
309.0042 11.7446
309.4863 9.255188
309.9684 7.529053
310.4505 5.568451
310.9326 3.366516
311.4148 0.86557
311.8969 2.836761
312.379 5.758789
312.8611 7.488098
313.3432 8.1138
313.8253 7.547394
314.3075 5.660248
314.7896 3.097656
315.2717 1.510956
315.7538 1.371887
316.2359 1.52301
316.718 2.038635
317.2001 2.741058
317.6823 3.64856
318.1644 4.722992
318.6465 5.40976
319.1286 4.821777
319.6107 2.216766
320.0928 0.094116002
320.575 1.518311
321.0571 2.694519
321.5392 3.093658
322.0213 2.859863
322.5034 3.065063
322.9855 4.974579
323.4677 9.063324
323.9498 11.34888
324.4319 10.31668
324.914 9.158813
325.3961 9.480103
325.8782 11.09161
326.3604 13.0126
326.8425 14.55878
327.3246 15.78857
327.8067 17.42218
328.2888 19.55582
328.7709 21.92761
329.2531 24.8031
329.7352 27.81342
330.2173 30.21497
330.6994 31.612
331.1815 32.56299
331.6636 34.6098
332.1458 38.72681
332.6279 42.80841
333.11 46.54218
333.5921 50.30988
334.0742 54.44174
334.5563 59.01373
335.0385 64.11642
335.5206 69.9054
336.0027 76.93427
336.4848 83.2478
336.9669 88.19577
337.449 93.07782
337.9312 98.77216
338.4133 105.312
338.8954 112.124
339.3775 118.6685
339.8596 124.9177
340.3417 131.4536
340.8239 137.8686
341.306 144.9095
341.7881 152.3801
342.2702 160.7156
342.7523 170.8975
343.2344 183.6283
343.7166 198.2731
344.1987 211.6116
344.6808 220.057
345.1629 231.4158
345.645 246.8146
346.1271 265.2324
346.6093 285.7498
347.0914 307.8352
347.5735 331.4595
348.0556 356.226
348.5377 383.2553
349.0198 409.6887
349.502 434.9481
349.9841 460.119
350.4662 486.4967
350.9483 513.6891
351.4304 539.7437
351.9125 562.8245
352.3947 583.4422
352.8768 598.3596
353.3589 608.4907
353.841 611.7544
354.3231 606.8734
354.8052 594.3813
355.2874 575.0533
355.7695 549.0037
356.2516 517.0284
356.7337 482.8751
357.2158 444.0529
357.6979 406.3012
358.18 370.3049
358.6621 336.0751
359.1443 303.5073
359.6264 272.4043
360.1085 243.6046
360.5906 218.5636
361.0727 198.1714
361.5548 178.937
362.037 160.0607
362.5191 142.7155
363.0012 127.8257
363.4833 115.2836
363.9654 104.4115
364.4475 94.49524
364.9297 85.50836
365.4118 77.96722
365.8939 72.8175
366.376 68.17908
366.8581 63.49536
367.3402 58.73029
367.8224 53.79358
368.3045 48.37329
368.7866 42.98175
369.2687 39.46893
369.7508 38.86713
370.2329 37.36713
370.7151 32.98309
371.1972 27.65338
371.6793 23.16663
372.1614 20.12335
372.6435 18.07361
373.1256 16.32098
373.6078 14.73773
374.0899 14.00153
374.572 15.40924
375.0541 16.61914
375.5362 15.57312
376.0183 12.43689
376.5005 9.339905
376.9826 7.834656
377.4647 7.693909
377.9468 7.451721
378.4289 6.624451
378.911 6.297607
379.3932 7.687805
379.8753 10.04608
380.3574 11.91296
380.8395 12.24261
381.3216 12.43896
381.8037 14.57697
382.2859 18.69464
382.768 22.26459
383.2501 24.04413
383.7322 24.7124
384.2143 25.42877
384.6964 26.17554
385.1786 27.07703
385.6607 28.28015
386.1428 29.6853
386.6249 30.97736
387.107 32.00708
387.5891 33.09949
388.0713 34.30914
388.5534 35.64581
389.0355 38.49756
389.5176 43.80316
389.9997 50.3454
390.4818 56.83783
390.964 63.27667
391.4461 70.41974
391.9282 78.74432
392.4103 88.27679
392.8924 98.74945
393.3745 108.8998
393.8567 121.2529
394.3388 137.9314
394.8209 157.3739
395.303 176.6337
395.7851 194.9138
396.2672 211.9871
396.7494 227.9483
397.2315 244.0922
397.7136 255.3276
398.1957 262.5955
398.6778 264.1893
399.1599 257.8889
399.642 243.9964
400.1241 225.1714
400.6063 203.3412
401.0884 178.3215
401.5705 153.9736
402.0526 128.2106
402.5347 105.255
403.0168 86.49951
403.499 71.37555
403.9811 59.45459
404.4632 50.60883
404.9453 43.77509
405.4274 36.29828
405.9095 26.51086
406.3917 19.12433
406.8738 15.14996
407.3559 12.72028
407.838 11.11353
408.3201 9.869568
408.8022 8.090393
409.2844 4.540344
409.7665 0.985046
410.2486 4.876038
410.7307 6.225464
411.2128 6.786499
411.6949 6.809875
412.1771 6.455811
412.6592 5.927917
413.1413 5.347168
413.6234 4.583008
414.1055 3.128113
414.5876 0.432495
415.0698 1.306458
415.5519 1.094727
416.034 0.046691999
416.5161 1.601196
416.9982 3.677307
417.4803 5.059021
417.9625 4.763489
418.4446 2.915405
418.9267 0.107605
419.4088 4.28064
419.8909 8.399292
420.373 11.14294
420.8552 12.76227
421.3373 13.56604
421.8194 13.32599
422.3015 12.65881
422.7836 11.86102
423.2657 10.95007
423.7479 11.4444
424.23 14.46954
424.7121 18.81525
425.1942 22.27271
425.6763 24.43872
426.1584 27.68689
426.6406 33.36377
427.1227 40.70581
427.6048 48.66949
428.0869 57.21503
428.569 65.5069
429.0511 72.61481
429.5333 78.53864
430.0154 84.86395
430.4975 93.44128
430.9796 100.7035
431.4617 105.8621
431.9438 108.1373
432.426 105.1761
432.9081 95.46283
433.3902 81.4458
433.8723 68.79889
434.3544 57.1084
434.8365 47.73065
435.3187 41.8028
435.8008 37.45319
436.2829 33.07898
436.765 28.5918
437.2471 25.086
437.7292 23.71326
438.2114 24.53314
438.6935 24.90808
439.1756 23.4491
439.6577 23.19238
440.1398 25.32837
440.6219 29.06274
441.104 33.4306
441.5862 37.92749
442.0683 42.29266
442.5504 45.78918
443.0325 47.54907
443.5146 51.42059
443.9967 58.39417
444.4789 66.64655
444.961 75.7998
445.4431 85.79395
445.9252 96.40833
446.4073 106.9919
446.8894 117.6456
447.3716 129.8303
447.8537 144.3687
448.3358 159.0255
448.8179 172.5765
449.3 185.6133
449.7821 198.7463
450.2643 211.8734
450.7464 226.1509
451.2285 242.9974
451.7106 262.0184
452.1927 280.8081
452.6748 298.884
453.157 316.3683
453.6391 332.9037
454.1212 348.7643
454.6033 365.451
455.0854 382.649
455.5675 401.2001
456.0497 420.8726
456.5318 442.1382
457.0139 467.7051
457.496 498.5331
457.9781 535.1334
458.4602 579.801
458.9424 632.8259
459.4245 691.3241
459.9066 754.5314
460.3887 822.9731
460.8708 899.1828
461.3529 982.5621
461.8351 1067.854
462.3172 1152.149
462.7993 1235.352
463.2814 1303.876
463.7635 1364.226
464.2456 1403.714
464.7278 1417.333
465.2099 1408.965
465.692 1382.104
466.1741 1338.337
466.6562 1282.074
467.1383 1220.203
467.6205 1151.456
468.1026 1078.652
468.5847 999.4571
469.0668 918.5946
469.5489 835.6429
470.031 752.7004
470.5132 675.0159
470.9953 605.5721
471.4774 543.6116
471.9595 487.6018
472.4416 438.1669
472.9237 392.8685
473.4059 350.9207
473.888 313.0875
474.3701 280.5375
474.8522 253.6251
475.3343 230.1416
475.8164 209.9706
476.2986 192.4198
476.7807 175.1384
477.2628 157.5933
477.7449 141.4903
478.227 128.5129
478.7091 118.2142
479.1913 108.3757
479.6734 98.28979
480.1555 89.30774
480.6376 82.19019
481.1197 76.68109
481.6018 72.53845
482.0839 69.76971
482.566 67.41772
483.0482 64.09625
483.5303 59.42657
484.0124 55.0943
484.4945 51.1676
484.9766 47.47302
485.4587 43.64679
485.9409 39.97064
486.423 37.04388
486.9051 35.18719
487.3872 34.35156
487.8693 34.5827
488.3514 37.39886
488.8336 38.39429
489.3157 36.85376
489.7978 34.02173
490.2799 30.29047
490.762 25.96082
491.2441 21.59076
491.7263 17.34058
492.2084 13.44684
492.6905 11.30902
493.1726 11.76044
493.6547 11.97424
494.1368 10.42493
494.619 8.224915
495.1011 6.556763
495.5832 5.717041
496.0653 4.719543
496.5474 2.628357
497.0295 0.237915
497.5117 3.050659
497.9938 5.826111
498.4759 7.942871
498.958 8.653931
499.4401 8.182129
499.9222 7.866272
500.4044 8.612915
500.8865 8.684814
501.3686 6.149536
501.8507 2.412659
502.3328 0.636414
502.8149 1.968262
503.2971 4.283142
503.7792 4.460266
504.2613 1.471436
504.7434 0.0071410001
505.2255 1.730103
505.7076 3.117737
506.1898 1.998779
506.6719 0.738953
507.154 3.021545
507.6361 3.743774
508.1182 3.633728
508.6003 4.072327
509.0825 4.405518
509.5646 7.077393
510.0467 15.30713
510.5288 23.3642
511.0109 27.93573
511.493 29.4588
511.9752 30.36926
512.4573 31.75928
512.9394 33.82166
513.4215 37.28259
513.9036 42.40698
514.3857 47.3761
514.8679 51.53357
515.35 55.17883
515.8321 58.36694
516.3142 60.92957
516.7963 64.60046
517.2784 70.6499
517.7606 78.02979
518.2427 84.88403
518.7248 91.1637
519.2069 99.05957
519.689 110.3018
520.1711 124.2843
520.6533 137.5613
521.1354 151.4535
521.6175 163.1611
522.0996 172.0852
522.5817 178.65
523.0638 181.6023
523.546 181.6633
524.0281 183.0029
524.5102 189.5403
524.9923 201.1447
525.4744 215.4753
525.9565 234.9756
526.4387 253.9347
526.9208 272.1952
527.4029 288.9478
527.885 304.6017
528.3671 318.9636
528.8492 328.0383
529.3314 328.0273
529.8135 319.0992
530.2956 301.3314
530.7777 271.0417
531.2598 239.6306
531.7419 213.11
532.2241 190.4501
532.7062 170.0254
533.1883 151.2936
533.6704 135.4312
534.1525 123.5345
534.6346 115.0201
535.1168 108.4338
535.5989 103.4441
536.081 100.4762
536.5631 100.22
537.0452 102.8373
537.5273 105.6903
538.0095 106.3071
538.4916 109.8826
538.9737 117.942
539.4558 130.3232
539.9379 147.1404
540.42 168.2385
540.9022 192.3702
541.3843 217.5707
541.8664 245.3389
542.3485 272.4937
542.8306 307.0941
543.3127 341.8942
543.7948 378.5299
544.2769 413.2025
544.759 441.2292
545.2411 461.4069
545.7233 471.7832
546.2054 470.595
546.6875 457.6886
547.1696 428.832
547.6517 377.5529
548.1339 321.4607
548.616 272.4388
549.0981 230.0951
549.5802 194.5134
550.0623 166.6379
550.5444 144.8127
551.0266 129.2719
551.5087 118.7992
551.9908 110.6322
552.4729 103.9479
552.955 99.44434
553.4371 98.32898
553.9193 101.3942
554.4014 103.4973
554.8835 103.547
555.3656 103.3197
555.8477 102.6776
556.3298 102.6106
556.812 104.3497
557.2941 108.4391
557.7762 114.7673
558.2583 122.6691
558.7404 131.7321
559.2225 144.439
559.7047 161.3683
560.1868 181.589
560.6689 204.1425
561.151 228.9985
561.6331 256.437
562.1152 286.1345
562.5974 320.0038
563.0795 361.0082
563.5616 407.7462
564.0437 456.4144
564.5258 507.6285
565.0079 555.6639
565.4901 597.3805
565.9722 631.5986
566.4543 652.714
566.9364 660.8113
567.4185 656.2599
567.9006 638.1384
568.3828 607.3196
568.8649 562.6814
569.347 505.2428
569.8291 441.5297
570.3112 378.6133
570.7933 316.0844
571.2755 261.5684
571.7576 215.6736
572.2397 177.0448
572.7218 146.2365
573.2039 121.6078
573.686 101.9857
574.1682 86.88794
574.6503 74.69458
575.1324 63.5946
575.6145 54.00867
576.0966 48.57971
576.5787 48.50659
577.0609 48.37695
577.543 43.74597
578.0251 37.18567
578.5072 34.87671
578.9893 38.5415
579.4714 42.8324
579.9536 47.11877
580.4357 50.19482
580.9178 49.69348
581.3999 45.85803
581.882 42.01318
582.3641 40.51978
582.8463 41.3374
583.3284 44.2301
583.8105 50.84338
584.2926 57.2832
584.7747 63.75854
585.2568 69.63501
585.739 73.58301
586.2211 76.35999
586.7032 80.526
587.1853 88.54834
587.6674 98.94287
588.1495 107.2886
588.6317 113.3939
589.1138 118.793
589.5959 124.3551
590.078 129.0281
590.5601 132.3877
591.0422 134.4662
591.5244 132.6595
592.0065 123.6241
592.4886 112.3425
592.9707 102.5671
593.4528 94.44678
593.9349 87.69666
594.4171 82.23657
594.8992 77.91113
595.3813 74.32166
595.8634 70.9082
596.3455 70.05383
596.8276 74.41089
597.3098 78.16467
597.7919 78.58887
598.274 76.80115
598.7561 74.88196
599.2382 73.66272
599.7203 72.66724
600.2025 71.63489
600.6846 70.52588
601.1667 67.79504
601.6488 63.1106
602.1309 57.19519
602.613 49.90894
603.0952 41.82703
603.5773 34.02991
604.0594 25.87183
604.5415 19.4978
605.0236 16.89941
605.5057 16.43677
605.9879 15.85083
606.47 14.78333
606.9521 13.07239
607.4342 10.34607
607.9163 6.900269
608.3984 5.09082
608.8806 6.626831
609.3627 7.456543
609.8448 7.368042
610.3269 6.365479
610.809 3.466919
611.2911 0.607666
611.7733 3.041504
612.2554 1.251831
612.7375 2.854614
613.2196 5.353638
613.7017 6.303589
614.1838 5.444092
614.666 1.57959
615.1481 2.796753
615.6302 4.56543
616.1123 3.917847
616.5944 3.332031
617.0765 3.686279
617.5587 3.880737
618.0408 2.85022
618.5229 1.122559
619.005 0.061523002
619.4871 0.276855
619.9692 0.076172002
620.4514 0.503784
620.9335 1.069824
621.4156 1.118286
621.8977 0.946655
622.3798 0.166504
622.8619 4.478516
623.3441 8.784912
623.8262 8.453735
624.3083 2.578003
624.7904 3.237427
625.2725 3.335083
625.7546 0.441162
626.2367 3.401489
626.7188 5.415649
627.2009 5.387939
627.683 1.775146
628.1652 3.464233
628.6473 5.680786
629.1294 4.273804
629.6115 2.529175
630.0936 0.825195
630.5757 0.991821
631.0579 3.222778
631.54 5.651855
632.0221 7.719482
632.5042 9.110962
632.9863 10.29529
633.4684 12.4906
633.9506 16.33191
634.4327 17.99438
634.9148 15.61414
635.3969 13.11438
635.879 12.69434
636.3611 13.33459
636.8433 13.28674
637.3254 11.7804
637.8075 10.64758
638.2896 12.01953
638.7717 14.47046
639.2538 15.16431
639.736 13.62842
640.2181 11.38635
640.7002 9.542236
641.1823 8.057617
641.6644 6.660156
642.1465 5.839844
642.6287 4.384888
643.1108 0.767944
643.5929 2.067627
644.075 1.402832
644.5571 1.623413
645.0392 3.907593
645.5214 3.598877
646.0035 2.59436
646.4856 4.380737
646.9677 8.94165
647.4498 12.97314
647.9319 16.04321
648.4141 18.16479
648.8962 19.00623
649.3783 18.84192
649.8604 18.59351
650.3425 18.55615
650.8246 18.14282
651.3068 16.8728
651.7889 15.13867
652.271 13.48364
652.7531 11.99695
653.2352 10.31921
653.7173 7.986816
654.1995 5.39978
654.6816 4.437988
655.1637 6.112915
655.6458 7.033203
656.1279 5.785767
656.61 4.307373
657.0922 3.529419
657.5743 3.494263
658.0564 4.116333
658.5385 5.947144
659.0206 7.615601
659.5027 7.656738
659.9849 6.47644
660.467 5.196899
660.9491 4.067871
661.4312 2.904053
661.9133 1.392822
662.3954 0.355469
662.8776 0.845581
663.3597 1.350586
663.8418 2.958252
664.3239 3.237671
664.806 3.15625
665.2881 3.372803
665.7703 3.990112
666.2524 4.984497
666.7345 6.572754
667.2166 8.233154
667.6987 9.236206
668.1808 9.566406
668.663 8.371704
669.1451 4.505737
669.6272 1.084961
670.1093 2.162964
670.5914 7.265137
671.0735 10.03931
671.5557 8.553223
672.0378 6.935791
672.5199 6.449341
673.002 6.330566
673.4841 6.133179
673.9662 5.80603
674.4484 5.00708
674.9305 3.250366
675.4126 1.062622
675.8947 0.176636
676.3768 0.656372
676.8589 2.477783
677.3411 7.07666
677.8232 11.35388
678.3053 12.38074
678.7874 10.98279
679.2695 10.25037
679.7516 12.58264
680.2338 13.672
680.7159 8.741333
681.198 1.723145
681.6801 0.65979
682.1622 2.370239
682.6443 6.407104
683.1265 8.379028
683.6086 8.717163
684.0907 8.227417
684.5728 6.260132
685.0549 4.79126
685.537 4.20752
686.0192 3.790039
686.5013 3.471802
686.9834 3.397827
687.4655 3.356934
687.9476 2.814453
688.4297 3.023315
688.9119 5.82312
689.394 10.06592
689.8761 13.229
690.3582 14.88196
690.8403 15.18457
691.3224 14.2395
691.8046 12.14539
692.2867 9.184814
692.7688 3.130615
693.2509 0.075317003
693.733 2.081177
694.2151 4.893799
694.6973 5.939331
695.1794 5.322388
695.6615 3.679565
696.1436 0.945679
696.6257 1.465576
697.1078 1.637329
697.59 0.183838
698.0721 0.755249
698.5542 0.881958
699.0363 1.29248
699.5184 2.987549
700.0005 5.176636
700.4827 5.046143
700.9648 0.166992
701.4469 3.095581
701.929 1.891479
702.4111 0.366577
702.8932 1.576416
703.3754 2.045532
703.8575 2.849121
704.3396 4.536865
704.8217 6.557495
705.3038 8.562378
705.7859 10.31104
706.2681 10.49097
706.7502 8.829712
707.2323 6.627441
707.7144 4.181152
708.1965 2.004761
708.6786 1.51062
709.1607 3.5802
709.6428 4.644775
710.1249 2.715454
710.6071 1.484009
711.0892 4.447021
711.5713 9.117188
712.0534 10.71497
712.5355 7.799316
713.0176 4.05603
713.4998 3.952393
713.9819 6.703491
714.464 7.86377
714.9461 6.993286
715.4282 7.176758
715.9103 10.47693
716.3925 14.62036
716.8746 15.38757
717.3567 12.05273
717.8388 11.77087
718.3209 18.37415
718.803 24.59778
719.2852 26.89673
719.7673 26.74268
720.2494 26.22656
720.7315 25.92493
721.2136 25.24292
721.6957 23.01379
722.1779 19.91992
722.66 18.82056
723.1421 20.01477
723.6242 20.72913
724.1063 20.42151
724.5884 18.94849
725.0706 15.29517
725.5527 9.817139
726.0348 6.625732
726.5169 7.936035
726.999 9.034912
727.4811 7.158447
727.9633 5.079834
728.4454 5.976074
728.9275 9.773193
729.4096 14.25537
729.8917 18.17041
730.3738 21.35571
730.856 23.56177
731.3381 24.86792
731.8202 23.49561
732.3023 17.99902
732.7844 12.52588
733.2665 9.770752
733.7487 9.561768
734.2308 11.05127
734.7129 16.05884
735.195 19.30908
735.6771 18.073
736.1592 16.04712
736.6414 15.94824
737.1235 17.58032
737.6056 19.72437
738.0877 21.87036
738.5698 24.25488
739.0519 27.23633
739.5341 30.70093
740.0162 34.29321
740.4983 37.76367
740.9804 42.04468
741.4625 48.75342
741.9446 55.4856
742.4268 57.32666
742.9089 53.41211
743.391 49.71997
743.8731 46.70117
744.3552 44.02515
744.8373 40.41284
745.3195 37.54517
745.8016 39.17017
746.2837 45.32446
746.7658 49.98145
747.2479 46.85986
747.73 38.7002
748.2122 32.83179
748.6943 29.28833
749.1764 26.39917
749.6585 24.07983
750.1406 21.21069
750.6227 15.9873
751.1049 8.553955
751.587 4.126709
752.0691 4.809082
752.5512 5.331787
753.0333 4.308594
753.5154 3.105957
753.9976 3.275635
754.4797 4.250977
754.9618 4.215088
755.4439 2.080078
755.926 0.672363
756.4081 2.126709
756.8903 2.493408
757.3724 2.35376
757.8545 1.705811
758.3366 2.094727
758.8187 5.097656
759.3008 9.181152
759.783 9.945557
760.2651 5.524902
760.7472 1.979736
761.2293 0.720459
761.7114 2.540039
762.1935 3.024902
762.6757 2.837158
763.1578 2.716309
763.6399 2.854248
764.122 3.37085
764.6041 4.142822
765.0862 5.470459
765.5684 7.769531
766.0505 11.04248
766.5326 15.76416
767.0147 22.27783
767.4968 27.7644
767.9789 28.74365
768.4611 25.46777
768.9432 23.56958
769.4253 23.65503
769.9074 24.01392
770.3895 24.86548
770.8716 25.4292
771.3538 25.7356
771.8359 25.35889
772.318 22.74048
772.8001 15.77563
773.2822 9.76123
773.7643 8.496338
774.2465 10.3418
774.7286 14.3291
775.2107 19.40918
775.6928 22.10254
776.1749 20.41699
776.657 16.03857
777.1392 11.56836
777.6213 6.790283
778.1034 3.904541
778.5855 3.034668
779.0676 3.943848
779.5497 8.577637
780.0319 13.71582
780.514 14.98291
780.9961 12.11108
781.4782 8.573242
781.9603 3.821533
782.4424 0.083740003
782.9246 1.549805
783.4067 1.278564
783.8888 1.311279
784.3709 5.761719
784.853 9.79248
785.3351 11.78198
785.8173 11.76587
786.2994 8.935303
786.7815 3.276611
787.2636 0.49292
787.7457 1.703857
788.2278 0.225098
788.71 4.647461
789.1921 12.16431
789.6742 19.29419
790.1563 26.87817
790.6384 32.67041
791.1205 37.84546
791.6026 39.93506
792.0847 35.86401
792.5668 28.39941
793.049 21.58765
793.5311 16.67822
794.0132 13.71313
794.4953 13.89624
794.9774 15.48291
795.4595 15.04761
795.9417 12.9397
796.4238 11.56885
796.9059 11.7312
797.388 12.69751
797.8701 13.8291
798.3522 15.04932
798.8344 14.93848
799.3165 11.51416
799.7986 10.50708
800.2807 16.90015
800.7628 22.22192
801.2449 19.0249
801.7271 10.77881
802.2092 7.578125
802.6913 14.14404
803.1734 19.97949
803.6555 17.82202
804.1376 13.57031
804.6198 13.9895
805.1019 18.1438
805.584 21.71851
806.0661 22.8335
806.5482 22.99438
807.0303 24.40234
807.5125 24.65039
807.9946 24.45557
808.4767 25.50366
808.9588 24.29102
809.4409 24.67627
809.923 26.06543
810.4052 28.51147
810.8873 31.94897
811.3694 32.2229
811.8515 26.76196
812.3336 21.66577
812.8157 16.95142
813.2979 13.97046
813.78 14.89233
814.2621 18.34546
814.7442 20.46094
815.2263 19.24829
815.7084 18.19556
816.1906 21.47876
816.6727 26.7998
817.1548 29.65308
817.6369 30.12964
818.119 30.07715
818.6011 29.98657
819.0833 31.07471
819.5654 35.75879
820.0475 44.31445
820.5296 47.98535
821.0117 44.86328
821.4938 40.81104
821.976 37.33691
822.4581 33.44604
822.9402 27.47827
823.4223 20.18091
823.9044 15.07983
824.3865 13.89404
824.8687 13.42871
825.3508 12.20581
825.8329 11.34106
826.315 12.47314
826.7971 14.92041
827.2792 16.82886
827.7614 17.41064
828.2435 16.60498
828.7256 12.61475
829.2077 7.163086
829.6898 8.177979
830.1719 15.80396
830.6541 21.47998
831.1362 21.9397
831.6183 19.54028
832.1004 16.94946
832.5825 14.15723
833.0646 10.28516
833.5468 1.444092
834.0289 2.272217
834.511 4.9729
834.9931 13.02637
835.4752 15.26172
835.9573 13.2749
836.4395 11.81689
836.9216 12.04834
837.4037 13.06787
837.8858 15.5354
838.3679 17.71387
838.85 17.50562
839.3322 15.52197
839.8143 13.07446
840.2964 10.68896
840.7785 9.3125
841.2606 9.962646
841.7427 12.60864
842.2249 18.0791
842.707 26.58691
843.1891 31.31079
843.6712 30
844.1533 26.18579
844.6354 22.46045
845.1176 18.78735
845.5997 15.04297
846.0818 8.912109
846.5639 6.767822
847.046 12.94019
847.5281 18.27466
848.0103 17.55322
848.4924 13.68311
848.9745 10.6814
849.4566 9.350342
849.9387 10.21021
850.4208 15.28638
850.903 21.11646
851.3851 25.78784
851.8672 28.52808
852.3493 26.7251
852.8314 20.79248
853.3135 16.08057
853.7957 16.94824
854.2778 20.7085
854.7599 20.98633
855.242 17.87842
855.7241 15.79761
856.2062 15.10522
856.6884 16.64185
857.1705 21.72168
857.6526 27.7627
858.1347 30.14795
858.6168 28.19653
859.0989 25.6936
859.5811 21.70361
860.0632 18.35449
860.5453 15.42065
861.0274 13.85303
861.5095 14.81177
861.9916 17.99146
862.4738 21.9751
862.9559 27.50391
863.438 31.6189
863.9201 30.28784
864.4022 27.92798
864.8843 30.56445
865.3665 37.13208
865.8486 43.33545
866.3307 47.23145
866.8128 48.39209
867.2949 45.00366
867.777 38.48047
868.2592 35.5415
868.7413 36.36255
869.2234 36.26318
869.7055 33.54614
870.1876 31.11377
870.6697 32.00195
871.1519 35.38892
871.634 36.60889
872.1161 34.37915
872.5981 32.35596
873.0803 29.95215
873.5624 28.58032
874.0445 30.19409
874.5266 32.5481
875.0087 31.70923
875.4908 26.89673
875.973 24.34302
876.4551 29.59521
876.9372 33.99634
877.4193 30.83765
877.9014 24.35864
878.3835 19.80444
878.8657 18.05591
879.3478 18.38989
879.8299 21.01392
880.312 23.04443
880.7941 18.40039
881.2762 10.0686
881.7584 8.071289
882.2405 12.84692
882.7226 18.71436
883.2047 22.87061
883.6868 29.73242
884.1689 47.01831
884.6511 74.0769
885.1332 88.27856
885.6153 87.34424
886.0974 79.35254
886.5795 61.30737
887.0616 42.5708
887.5438 28.52979
888.0259 19.25195
888.508 15.28564
888.9901 19.28857
889.4722 22.60205
889.9543 22.92896
890.4365 23.46509
890.9186 27.61865
891.4007 32.01514
891.8828 31.16187
892.3649 24.98413
892.847 19.35742
893.3292 18.07568
893.8113 18.00464
894.2934 16.44702
894.7755 14.1814
895.2576 12.33032
895.7397 11.00928
896.2219 9.450195
896.704 7.192627
897.1861 6.180908
897.6682 10.22437
898.1503 18.53027
898.6324 25.07056
899.1146 29.82593
899.5967 32.57715
900.0788 33.4126
900.5609 31.479
901.043 25.05249
901.5251 15.28442
902.0073 9.482666
902.4894 9.384277
902.9715 9.614014
903.4536 8.361084
903.9357 9.252686
904.4178 16.45386
904.9 25.37988
905.3821 29.12256
905.8642 26.84277
906.3463 25.37671
906.8284 28.01123
907.3105 29.79419
907.7927 28.60547
908.2748 25.34668
908.7569 19.49561
909.239 12.52368
909.7211 8.190918
910.2032 8.323486
910.6854 10.57642
911.1675 14.85059
911.6496 18.70923
912.1317 17.23218
912.6138 11.61523
913.0959 6.066162
913.5781 2.035645
914.0602 0.134033
914.5423 1.229492
915.0244 4.394043
915.5065 6.494141
915.9886 7.522217
916.4708 11.60864
916.9529 20.24585
917.435 26.84009
917.9171 27.62036
918.3992 24.69702
918.8813 21.75342
919.3635 18.99683
919.8456 14.6167
920.3277 7.199951
920.8098 0.532959
921.2919 5.065186
921.774 9.182373
922.2562 11.25928
922.7383 11.59521
923.2204 10.94751
923.7025 8.908691
924.1846 7.215332
924.6667 7.991455
925.1489 7.485596
925.631 1.445801
926.1131 6.172119
926.5952 9.718994
927.0773 8.628662
927.5594 6.564453
928.0416 5.117432
928.5237 4.137451
929.0058 3.07373
929.4879 2.598877
929.97 4.672852
930.4521 8.481201
930.9343 10.6167
931.4164 9.674561
931.8985 7.475342
932.3806 5.885742
932.8627 4.848633
933.3448 3.570801
933.827 2.317383
934.3091 4.696533
934.7912 11.70776
935.2733 18.66675
935.7554 22.63745
936.2375 23.3418
936.7197 19.00122
937.2018 7.735596
937.6839 2.71875
938.166 6.44458
938.6481 10.13672
939.1302 11.03296
939.6124 10.64697
940.0945 10.67212
940.5766 10.90259
941.0587 9.534424
941.5408 4.50415
942.0229 1.010986
942.5051 0.999512
942.9872 0.643555
943.4693 2.589355
943.9514 6.96582
944.4335 10.53223
944.9156 12.94702
945.3978 13.19727
945.8799 8.396484
946.362 4.422363
946.8441 5.303711
947.3262 7.714111
947.8083 8.347168
948.2905 7.422852
948.7726 6.539795
949.2547 6.275391
949.7368 6.165039
950.2189 6.504639
950.701 6.253174
951.1832 3.097168
951.6653 1.613281
952.1474 4.763916
952.6295 5.753906
953.1116 5.203857
953.5938 3.375732
954.0759 1.173584
954.558 0.209717
955.04 0.220703
955.5222 0.304199
956.0043 1.436279
956.4864 1.994873
956.9685 1.595703
957.4506 0.449951
957.9327 1.306885
958.4149 3.550537
958.897 5.883545
959.3791 8.71167
959.8612 9.330078
960.3433 6.309082
960.8254 4.513916
961.3076 6.888916
961.7897 10.78833
962.2718 12.99683
962.7539 13.53003
963.236 11.58496
963.7181 2.839844
964.2003 1.679932
964.6824 0.722656
965.1645 5.625488
965.6466 12.44385
966.1287 19.53979
966.6108 24.34399
967.093 26.59009
967.5751 27.11768
968.0572 24.44629
968.5393 22.16821
969.0214 22.60425
969.5035 23.32861
969.9857 21.28198
970.4678 17.70093
970.9499 16.30444
971.432 18.36426
971.9141 21.07031
972.3962 23.16382
972.8784 25.16284
973.3605 28.30835
973.8426 31.05688
974.3247 29.70703
974.8068 25.12549
975.2889 23.03931
975.7711 26.84277
976.2532 32.81519
976.7353 37.60303
977.2174 41.27808
977.6995 42.80347
978.1816 43.36987
978.6638 46.2356
979.1459 52.39038
979.628 62.58179
980.1101 77.99023
980.5922 96.13428
981.0743 113.8633
981.5565 129.9375
982.0386 134.3657
982.5207 126.6318
983.0028 118.8418
983.4849 115.8713
983.967 115.3213
984.4492 114.1914
984.9313 117.3223
985.4134 121.665
985.8955 126.8137
986.3776 136.1294
986.8597 144.0066
987.3419 154.8193
987.824 172.072
988.3061 190.679
988.7882 202.7502
989.2703 208.2876
989.7524 219.01
990.2346 237.3755
990.7167 255.3257
991.1988 269.28
991.6809 286.4934
992.163 311.6785
992.6451 342.4102
993.1273 375.1992
993.6094 410.5483
994.0915 444.042
994.5736 471.2673
995.0557 503.0422
995.5378 542.436
996.02 585.8325
996.5021 630.1743
996.9842 676.9512
997.4663 729.1101
997.9484 787.0503
998.4305 848.8259
998.9127 914.1919
999.3948 982.6157
999.8769 1052.477
1000.359 1125.785
1000.841 1202.462
1001.323 1283.961
1001.805 1373.219
1002.287 1470.936
1002.77 1576.618
1003.252 1689.432
1003.734 1810.798
1004.216 1942.55
1004.698 2083.716
1005.18 2232.955
1005.662 2391.844
1006.144 2566.366
1006.627 2761.016
1007.109 2963.032
1007.591 3172.03
1008.073 3373.387
1008.555 3559.928
1009.037 3721.515
1009.519 3846.639
1010.001 3928.216
1010.483 3953.715
1010.966 3915.353
1011.448 3821.014
1011.93 3670.278
1012.412 3474.706
1012.894 3244.968
1013.376 2991.068
1013.858 2737.312
1014.34 2490.542
1014.823 2256.231
1015.305 2037.14
1015.787 1836.569
1016.269 1663.97
1016.751 1514.038
1017.233 1367.21
1017.715 1224.98
1018.197 1101.515
1018.679 1000.787
1019.162 915.4431
1019.644 840.1021
1020.126 773.6421
1020.608 712.2869
1021.09 656.5325
1021.572 611.7942
1022.054 578.4329
1022.536 547.075
1023.018 514.5396
1023.501 484.644
1023.983 461.1389
1024.465 441.9519
1024.947 420.3696
1025.429 396.0107
1025.911 374.6201
1026.393 356.5718
1026.875 339.4619
1027.358 321.4307
1027.84 307.5208
1028.322 303.5767
1028.804 307.0503
1029.286 308.3789
1029.768 308.7014
1030.25 301.4199
1030.732 283.7178
1031.214 265.5857
1031.697 249.811
1032.179 236.095
1032.661 223.4756
1033.143 212.7764
1033.625 208.1587
1034.107 210.9363
1034.589 216.8494
1035.071 227.7832
1035.553 238.5613
1036.036 248.5063
1036.518 256.1279
1037 258.8208
1037.482 257.6389
1037.964 258.7737
1038.446 262.4529
1038.928 267.988
1039.41 276.0754
1039.893 284.998
1040.375 293.5828
1040.857 303.25
1041.339 314.397
1041.821 327.5344
1042.303 345.5154
1042.785 374.167
1043.267 396.5017
1043.75 410.5208
1044.232 419.7434
1044.714 420.7512
1045.196 421.3032
1045.678 429.6338
1046.16 443.7969
1046.642 455.1519
1047.124 463.5081
1047.606 467.8701
1048.089 469.4785
1048.571 465.6143
1049.053 452.2883
1049.535 434.4395
1050.017 415.4888
1050.499 396.1543
1050.981 377.4836
1051.463 359.9541
1051.945 342.5674
1052.428 323.9438
1052.91 306.8879
1053.392 295.4795
1053.874 284.6123
1054.356 267.0994
1054.838 245.0808
1055.32 227.4001
1055.802 216.1863
1056.285 207.1108
1056.767 197.5251
1057.249 191.5674
1057.731 194.7363
1058.213 199.9033
1058.695 199.353
1059.177 194.5808
1059.659 190.5984
1060.141 187.6946
1060.624 190.6416
1061.106 203.5974
1061.588 219.3999
1062.07 233.5745
1062.552 249.5454
1063.034 272.0266
1063.516 299.2339
1063.998 327.2693
1064.48 356.4844
1064.963 376.8318
1065.445 382.4846
1065.927 380.5581
1066.409 372.6621
1066.891 360.7183
1067.373 345.2168
1067.855 327.5403
1068.337 310.2146
1068.82 293.9539
1069.302 275.6438
1069.784 250.6389
1070.266 227.3762
1070.748 212.4133
1071.23 199.2751
1071.712 180.771
1072.194 159.4307
1072.677 140.4587
1073.159 125.144
1073.641 115.2791
1074.123 116.4875
1074.605 117.2009
1075.087 111.6733
1075.569 102.9192
1076.051 92.79785
1076.533 81.92822
1077.016 70.58643
1077.498 58.93237
1077.98 48.13062
1078.462 38.5896
1078.944 30.04736
1079.426 19.94507
1079.908 13.09619
1080.39 16.81567
1080.872 24.71973
1081.354 26.2959
1081.837 20.64575
1082.319 15.14795
1082.801 12.19141
1083.283 10.62793
1083.765 11.06714
1084.247 11.53394
1084.729 10.09277
1085.211 8.066162
1085.694 5.72876
1086.176 4.375
1086.658 9.485352
1087.14 26.69263
1087.622 39.54785
1088.104 39.88184
1088.586 35.1377
1089.068 27.21191
1089.551 18.84644
1090.033 11.65942
1090.515 6.661133
1090.997 6.142334
1091.479 10.9751
1091.961 19.0144
1092.443 34.81226
1092.925 47.10278
1093.407 49.77832
1093.89 46.25049
1094.372 37.20898
1094.854 25.57837
1095.336 17.15234
1095.818 13.38647
1096.3 10.47656
1096.782 7.530029
1097.264 4.846191
1097.746 1.521484
1098.229 0.548584
1098.711 0.683838
1099.193 4.037109
1099.675 7.568115
1100.157 10.97974
1100.639 13.48022
1101.121 17.10742
1101.603 16.54395
1102.086 5.732178
1102.568 4.798096
1103.05 7.809814
1103.532 6.905029
1104.014 6.942139
1104.496 8.3479
1104.978 10.61841
1105.46 18.44458
1105.943 19.06665
1106.425 4.793213
1106.907 10.17798
1107.389 22.16626
1107.871 29.77271
1108.353 30.4563
1108.835 25.46069
1109.317 20.50049
1109.799 16.7688
1110.281 11.16626
1110.764 1.901855
1111.246 7.129883
1111.728 17.26367
1112.21 24.59155
1112.692 24.80127
1113.174 20.06934
1113.656 15.7771
1114.138 11.87451
1114.621 8.75
1115.103 7.564941
1115.585 5.184082
1116.067 1.226807
1116.549 5.779785
1117.031 3.711182
1117.513 1.245361
1117.995 3.150879
1118.478 1.956055
1118.96 0.532959
1119.442 0.900146
1119.924 3.265869
1120.406 7.508789
1120.888 11.00879
1121.37 12.72583
1121.852 13.07715
1122.334 12.41382
1122.817 10.83374
1123.299 8.343262
1123.781 3.502686
1124.263 4.268066
1124.745 12.59155
1125.227 20.18018
1125.709 24.7041
1126.191 26.86133
1126.673 26.58643
1127.156 25.47241
1127.638 28.24023
1128.12 35.17114
1128.602 36.11011
1129.084 30.44922
1129.566 24.68237
1130.048 20.02319
1130.53 16.38696
1131.013 13.80298
1131.495 11.77783
1131.977 8.954834
1132.459 6.446533
1132.941 11.3396
1133.423 22.86304
1133.905 28.94409
1134.387 28.52173
1134.87 29.00684
1135.352 33.32178
1135.834 37.46362
1136.316 37.13672
1136.798 35.30518
1137.28 38.552
1137.762 45.6228
1138.244 53.13452
1138.726 60.29834
1139.208 64.20898
1139.691 64.56104
1140.173 64.80151
1140.655 67.15552
1141.137 69.63599
1141.619 68.85229
1142.101 67.07031
1142.583 67.49097
1143.065 70.45874
1143.548 78.45459
1144.03 89.6875
1144.512 96.65723
1144.994 96.71631
1145.476 96.84082
1145.958 105.1785
1146.44 112.8872
1146.922 110.0957
1147.405 102.1438
1147.887 94.0188
1148.369 86.88599
1148.851 82.42676
1149.333 80.27881
1149.815 76.448
1150.297 67.79614
1150.779 60.53198
1151.261 59.78955
1151.744 60.1228
1152.226 57.36304
1152.708 53.51855
1153.19 51.17261
1153.672 50.14453
1154.154 48.84204
1154.636 46.7207
1155.118 45.5874
1155.6 47.69604
1156.083 48.51196
1156.565 45.19287
1157.047 41.41675
1157.529 39.48193
1158.011 38.94971
1158.493 39.19409
1158.975 40.14062
1159.457 40.79468
1159.94 39.03906
1160.422 40.177
1160.904 49.02637
1161.386 54.47852
1161.868 51.11304
1162.35 44.4541
1162.832 38.87549
1163.314 33.89966
1163.796 29.3042
1164.279 25.56519
1164.761 25.1355
1165.243 28.20435
1165.725 32.56885
1166.207 38.24976
1166.689 43.83447
1167.171 48.79956
1167.653 52.44775
1168.135 53.91675
1168.618 53.09229
1169.1 48.10107
1169.582 38.95068
1170.064 32.78369
1170.546 30.60083
1171.028 31.41309
1171.51 34.92163
1171.992 41.16382
1172.474 50.72485
1172.957 59.08228
1173.439 58.08887
1173.921 50.89771
1174.403 45.42725
1174.885 41.18091
1175.367 34.86694
1175.849 27.19434
1176.331 23.78711
1176.814 26.87256
1177.296 31.71143
1177.778 34.21289
1178.26 36.18481
1178.742 40.46655
1179.224 44.91699
1179.706 47.64917
1180.188 47.74438
1180.671 42.76807
1181.153 33.58105
1181.635 25.99097
1182.117 22.64966
1182.599 21.49268
1183.081 22.96094
1183.563 24.26978
1184.045 22.32764
1184.527 20.55786
1185.01 23.29102
1185.492 28.71948
1185.974 32.71069
1186.456 34.68384
1186.938 33.5105
1187.42 24.36475
1187.902 19.16943
1188.384 23.23926
1188.866 27.39697
1189.349 26.76953
1189.831 25.20435
1190.313 27.05273
1190.795 31.30835
1191.277 33.58667
1191.759 33.62891
1192.241 32.5791
1192.723 30.11963
1193.206 27.46655
1193.688 24.6936
1194.17 22.20947
1194.652 19.98071
1195.134 19.41235
1195.616 23.15894
1196.098 22.91528
1196.58 31.07178
1197.063 28.34619
1197.545 29.9231
1198.027 35.38525
1198.509 35.23975
1198.991 27.36499
1199.473 20.1875
1199.955 19.48145
1200.437 22.29565
1200.919 26.62964
1201.401 30.83594
1201.884 29.55298
1202.366 27.09839
1202.848 34.43774
1203.33 48.3855
1203.812 56.54395
1204.294 55.35718
1204.776 50.43018
1205.258 43.96045
1205.741 36.71167
1206.223 27.20898
1206.705 19.24097
1207.187 15.74731
1207.669 15.39526
1208.151 17.76318
1208.633 21.49609
1209.115 23.22729
1209.598 22.21631
1210.08 20.29443
1210.562 15.16602
1211.044 12.94678
1211.526 18.93042
1212.008 22.89819
1212.49 17.8374
1212.972 10.87109
1213.454 10.77637
1213.937 15.96875
1214.419 18.89966
1214.901 19.37207
1215.383 18.45557
1215.865 16.00342
1216.347 12.74341
1216.829 8.617432
1217.311 5.875488
1217.793 5.913086
1218.276 7.532959
1218.758 9.786377
1219.24 11.54492
1219.722 7.976807
1220.204 1.335938
1220.686 0.019774999
1221.168 3.553711
1221.65 7.69873
1222.133 11.27319
1222.615 13.54663
1223.097 13.70874
1223.579 17.41333
1224.061 33.7998
1224.543 51.83789
1225.025 62.81128
1225.507 67.42896
1225.99 66.43286
1226.472 60.05029
1226.954 45.99756
1227.436 25.38403
1227.918 9.304199
1228.4 1.638672
1228.882 2.788086
1229.364 4.678467
1229.846 4.155029
1230.328 1.970947
1230.811 7.218262
1231.293 5.547852
1231.775 0.530029
1232.257 1.126221
1232.739 0.550781
1233.221 1.38916
1233.703 1.08252
1234.185 1.260498
1234.668 2.085205
1235.15 3.283936
1235.632 4.911865
1236.114 5.213623
1236.596 2.431396
1237.078 0.452148
1237.56 3.176514
1238.042 10.40454
1238.525 11.04639
1239.007 7.056396
1239.489 4.260742
1239.971 3.172852
1240.453 2.605469
1240.935 2.144531
1241.417 1.81665
1241.899 1.719238
1242.381 1.523926
1242.864 0.0092770001
1243.346 0.694336
1243.828 2.43042
1244.31 6.468506
1244.792 7.912109
1245.274 7.624023
1245.756 8.471436
1246.238 10.8396
1246.72 11.396
1247.203 7.56958
1247.685 5.226563
1248.167 5.774902
1248.649 6.259277
1249.131 5.23584
1249.613 4.875488
1250.095 7.279785
1250.577 10.8374
1251.059 12.57666
1251.542 12.4895
1252.024 9.7854
1252.506 4.481934
1252.988 1.125732
1253.47 0.226807
1253.952 0.805908
1254.434 2.659912
1254.916 3.139404
1255.399 0.509766
1255.881 2.553955
1256.363 2.015625
1256.845 0.409912
1257.327 0.503174
1257.809 1.176025
1258.291 9.051025
1258.773 18.73218
1259.255 22.52246
1259.738 19.33911
1260.22 14.82983
1260.702 9.214844
1261.184 7.222656
1261.666 12.42456
1262.148 19.45972
1262.63 27.82617
1263.112 35.59937
1263.594 42.66235
1264.077 47.39185
1264.559 46.97632
1265.041 42.2583
1265.523 36.81665
1266.005 30.35693
1266.487 24.59155
1266.969 19.3269
1267.451 17.76343
1267.934 20.84106
1268.416 23.52661
1268.898 22.98291
1269.38 19.89868
1269.862 13.73193
1270.344 7.652344
1270.826 7.360596
1271.308 9.981445
1271.791 16.33765
1272.273 23.47656
1272.755 26.23145
1273.237 24.59082
1273.719 21.84009
1274.201 18.98608
1274.683 16.62939
1275.165 15.00439
1275.647 13.93604
1276.13 14.13599
1276.612 13.96362
1277.094 12.5271
1277.576 10.21289
1278.058 7.106934
1278.54 3.658936
1279.022 1.046387
1279.504 0.82959
1279.986 0.861084
1280.469 6.770996
1280.951 11.55176
1281.433 14.70142
1281.915 14.5166
1282.397 7.340576
1282.879 2.028809
1283.361 0.576172
1283.843 0.870361
1284.326 0.574951
1284.808 0
